171.37
102.584
25.811
-66.089
-158.853
-262.821
-373.578
-478.332
-567.945
-635.141
-674.09
-683.799
-668.638
-634.856
-589.194
-536.258
-478.536
-419.556
-362.513
-310.165
-264.983
-226.558
-193.139
-163.805
-137.893
-115.853
-99.085
-87.608
-79.91
-74.087
-68.002
-59.935
-50.145
-39.436
-27.275
-13.895
1.231
19.473
40.02
62.639
86.831
110.26
130.783
146.002
154.713
158.352
160.172
163.583
170.166
179.346
189.159
197.909
205.116
211.172
216.656
221.676
226.025
229.514
232.105
233.96
235.205
235.838
235.849
235.271
234.187
232.69
230.833
228.655
226.22
223.635
221.064
218.646
216.473
214.605
213.06
211.849
211.001
210.543
210.49
210.853
211.618
212.771
214.309
216.204
218.406
220.834
223.368
225.907
228.387
230.763
233.015
235.13
237.083
238.863
240.471
241.906
243.173
244.27
245.182
245.91
246.473
246.905
247.262
247.583
247.885
248.176
248.453
248.705
248.926
249.096
249.18
249.15
248.979
248.648
248.144
247.445
246.527
245.359
243.906
242.142
240.047
237.608
234.814
231.659
228.138
224.257
220.027
215.459
210.562
205.346
199.82
193.996
187.89
181.518
174.898
168.049
160.99
153.741
146.324
138.76
131.071
123.277
115.4
107.46
99.481
91.485
83.494
75.532
67.62
59.78
52.033
44.399
36.899
29.549
22.367
15.369
8.57
1.982
-4.381
-10.511
-16.396
-22.029
-27.403
-32.513
-37.354
-41.924
-46.221
-50.245
-53.996
-57.477
-60.692
-63.645
-66.342
-68.789
-70.993
-72.963
-74.709
-76.238
-77.562
-78.692
-79.637
-80.411
-81.023
-81.487
-81.813
-82.014
-82.101
-82.085
-81.978
-81.791
-81.534
-81.217
-80.85
-80.442
-80.001
-79.537
-79.057
-78.567
-78.074
-77.585
-77.105
-76.637
-76.187
-75.758
-75.353
-74.974
-74.624
-74.304
-74.016
-73.76
-73.537
-73.347
-73.189
-73.063
-72.969
-72.904
-72.869
-72.862
-72.882
-72.926
-72.995
-73.085
-73.196
-73.326
-73.473
-73.637
-73.816
-74.009
-74.216
-74.435
-74.666
-74.909
-75.164
-75.43
-75.709
-76
-76.304
-76.621
-76.952
-77.297
-77.659
-78.036
-78.43
-78.842
-79.273
-79.722
-80.191
-80.679
-81.186
-81.712
-82.257
-82.82
-83.4
-83.996
-84.608
-85.234
-85.871
-86.52
-87.176
-87.838
-88.502
-89.167
-89.827
-90.48
-91.121
-91.747
-92.352
-92.933
-93.485
-94.003
-94.482
-94.917
-95.305
-95.639
-95.915
-96.13
-96.279
-96.359
-96.368
-96.303
-96.163
-95.948
-95.658
-95.295
-94.858
-94.35
-93.772
-93.129
-92.422
-91.656
-90.834
-89.96
-89.041
-88.082
-87.091
-86.076
-85.043
-84
-82.955
-81.916
-80.894
-79.895
-78.925
-77.991
-77.099
-76.258
-75.478
-74.766
-74.123
-73.548
-73.04
-72.597
-72.216
-71.886
-71.591
-71.316
-71.044
-70.767
-70.48
-70.176
-69.846
-69.477
-69.054
-68.571
-68.031
-67.44
-66.802
-66.126
-65.422
-64.724
-64.084
-63.552
-63.182
-63.017
-63.091
-63.442
-64.102
-65.11
-66.515
-68.349
-70.641
-73.409
-76.651
-80.383
-84.634
-89.352
-94.385
-99.5
-104.357
-108.663
-112.23
-114.827
-116.158
-116.041
-114.505
-111.867
-108.77
-105.809
-103.242
-101.31
-100.441
-100.89
-102.651
-104.963
-106.01
-104.126
-98.288
-88.434
-75.755
-61.074
-44.599
-25.728
-1.83
29.224
68.288
114.991
164.732
211.056
247.036
264.407
257.054
221.847
159.286
75.063
-22.098
-124.483
-227.937
-332.614
-439.338
-542.552
-639.821
-730.631
-790.939
-799.402
-776.852
-748.382
-712.097
-665.367
-612.573
-553.232
-486.35
-414.834
-344.337
-281.841
-231.886
-194.869
-168.229
-148.315
-132.382
-119.981
-111.907
-107.775
-106.296
-105.678
-103.795
-99.9
-94.299
-87.193
-79.079
-70.693
-62.597
-55.568
-50.397
-47.218
-45.824
-45.94
-47.115
-48.924
-51.008
-52.9
-54.137
-54.493
-53.899
-52.401
-50.138
-47.22
-43.733
-39.797
-35.542
-31.089
-26.54
-21.979
-17.466
-13.064
-8.846
-4.879
-1.229
2.053
4.945
7.455
9.602
11.419
12.944
14.217
15.286
16.209
17.039
17.825
18.61
19.434
20.336
21.36
22.547
23.935
25.548
27.4
29.499
31.847
34.44
37.276
40.345
43.634
47.135
50.84
54.735
58.81
63.044
67.413
71.888
76.44
81.036
85.65
90.26
94.848
99.402
103.913
108.37
112.76
117.058
121.244
125.298
129.204
132.951
136.54
139.976
143.27
146.436
149.477
152.387
155.146
157.723
160.079
162.174
163.98
165.483
166.675
167.546
168.082
168.261
168.048
167.401
166.269
164.597
162.355
159.527
156.119
152.157
147.681
142.739
137.366
131.581
125.396
118.825
111.894
104.644
97.14
89.457
81.691
73.94
66.283
58.786
51.495
44.438
37.633
31.09
24.831
18.89
13.319
8.16
3.447
-0.809
-4.62
-8.011
-11.034
-13.742
-16.174
-18.368
-20.343
-22.112
-23.679
-25.048
-26.227
-27.237
-28.116
-28.896
-29.607
-30.262
-30.862
-31.395
-31.834
-32.154
-32.336
-32.363
-32.233
-31.947
-31.511
-30.936
-30.234
-29.411
-28.462
-27.388
-26.186
-24.863
-23.431
-21.909
-20.319
-18.687
-17.033
-15.377
-13.734
-12.114
-10.524
-8.969
-7.45
-5.97
-4.534
-3.145
-1.811
-0.534
0.684
1.844
2.948
3.998
4.998
5.95
6.858
7.724
8.55
9.336
10.083
10.791
11.462
12.098
12.702
13.276
13.824
14.349
14.855
15.344
15.82
16.285
16.742
17.193
17.639
18.084
18.528
18.974
19.423
19.876
20.334
20.798
21.267
21.742
22.224
22.71
23.202
23.699
24.199
24.701
25.205
25.709
26.212
26.712
27.207
27.696
28.178
28.65
29.11
29.558
29.991
30.408
30.808
31.19
31.553
31.897
32.221
32.524
32.808
33.072
33.317
33.543
33.753
33.947
34.127
34.296
34.455
34.608
34.756
34.902
35.051
35.205
35.368
35.544
35.738
35.952
36.193
36.464
36.768
37.11
37.493
37.919
38.392
38.912
39.48
40.097
40.763
41.479
42.243
43.055
43.913
44.815
45.76
46.745
47.767
48.819
49.896
50.993
52.102
53.219
54.337
55.448
56.547
57.626
58.681
59.704
60.688
61.625
62.503
63.316
64.061
64.739
65.35
65.899
66.394
66.841
67.257
67.652
68.034
68.412
68.789
69.171
69.569
69.992
70.452
70.959
71.514
72.113
72.756
73.423
74.094
74.745
75.337
75.834
76.209
76.429
76.457
76.27
75.834
75.118
74.106
72.766
71.064
68.981
66.48
63.563
60.258
56.572
52.5
48.109
43.518
38.95
34.746
31.175
28.417
26.691
26.264
27.293
29.71
33.14
36.89
40.305
43.071
44.903
45.349
44.175
41.491
38.141
35.965
36.673
41.311
50.077
62.137
76.91
94.19
114.31
139.201
170.333
208.28
252.654
299.247
342.164
374.89
389.577
380.442
344.44
281.949
198.389
102.027
0.173
-103.209
-208.787
-317.698
-424.173
-525.964
-622.081
-686.727
-697.588
-675.917
-647.656
-610.492
-560.158
-501.443
-435.481
-362.583
-288.172
-218.724
-159.449
-113.353
-78.917
-52.595
-31.878
-15.115
-2.648
4.6
7.747
8.785
9.895
12.891
18.069
24.993
33.35
42.567
51.862
60.392
67.118
71.5
73.652
73.886
72.647
70.397
67.555
64.646
62.284
60.853
60.485
61.178
62.795
65.211
68.355
72.103
76.305
80.828
85.543
90.352
95.183
99.955
104.574
108.948
112.986
116.612
119.792
122.517
124.8
126.669
128.157
129.303
130.159
130.784
131.239
131.582
131.865
132.134
132.439
132.833
133.368
134.089
135.025
136.194
137.608
139.274
141.201
143.39
145.832
148.511
151.412
154.52
157.819
161.29
164.9
168.616
172.406
176.247
180.125
184.025
187.929
191.819
195.674
199.485
203.253
206.977
210.65
214.267
217.82
221.318
224.789
228.25
231.708
235.156
238.562
241.901
245.148
248.268
251.221
253.951
256.381
258.45
260.115
261.328
262.048
262.215
261.746
260.582
258.682
256.026
252.619
248.47
243.586
238.002
231.769
224.96
217.671
209.98
201.943
193.623
185.081
176.391
167.647
158.925
150.279
141.758
133.395
125.225
117.282
109.579
102.112
94.862
87.798
80.904
74.18
67.624
61.236
55.01
48.93
42.993
37.208
31.58
26.117
20.822
15.695
10.746
5.996
1.463
-2.828
-6.863
-10.638
-14.15
-17.397
-20.38
-23.103
-25.573
-27.805
-29.81
-31.601
-33.188
-34.58
-35.791
-36.837
-37.735
-38.501
-39.15
-39.696
-40.152
-40.532
-40.848
-41.111
-41.33
-41.514
-41.671
-41.81
-41.941
-42.072
-42.211
-42.364
-42.539
-42.742
-42.978
-43.251
-43.565
-43.922
-44.322
-44.768
-45.259
-45.794
-46.374
-46.996
-47.658
-48.358
-49.093
-49.86
-50.655
-51.475
-52.315
-53.173
-54.045
-54.925
-55.811
-56.699
-57.585
-58.467
-59.34
-60.201
-61.048
-61.878
-62.686
-63.473
-64.233
-64.966
-65.67
-66.343
-66.985
-67.594
-68.17
-68.713
-69.223
-69.702
-70.149
-70.566
-70.954
-71.313
-71.647
-71.955
-72.241
-72.506
-72.751
-72.98
-73.194
-73.394
-73.583
-73.763
-73.936
-74.102
-74.264
-74.423
-74.581
-74.739
-74.898
-75.06
-75.224
-75.392
-75.564
-75.741
-75.923
-76.109
-76.298
-76.49
-76.683
-76.877
-77.07
-77.259
-77.444
-77.623
-77.793
-77.952
-78.097
-78.227
-78.339
-78.43
-78.497
-78.538
-78.549
-78.528
-78.473
-78.379
-78.246
-78.07
-77.849
-77.58
-77.26
-76.888
-76.461
-75.978
-75.436
-74.836
-74.176
-73.457
-72.68
-71.845
-70.956
-70.014
-69.024
-67.987
-66.909
-65.792
-64.641
-63.461
-62.257
-61.033
-59.795
-58.549
-57.302
-56.062
-54.837
-53.632
-52.455
-51.314
-50.215
-49.165
-48.17
-47.236
-46.367
-45.569
-44.849
-44.214
-43.669
-43.211
-42.839
-42.547
-42.326
-42.171
-42.07
-42.006
-41.964
-41.933
-41.899
-41.86
-41.807
-41.732
-41.624
-41.467
-41.251
-40.978
-40.649
-40.275
-39.87
-39.444
-39.021
-38.646
-38.352
-38.178
-38.167
-38.336
-38.712
-39.327
-40.194
-41.35
-42.833
-44.664
-46.877
-49.489
-52.48
-55.863
-59.665
-63.814
-68.183
-72.545
-76.546
-79.911
-82.461
-83.977
-84.193
-82.943
-80.301
-76.667
-72.778
-69.333
-66.677
-65.102
-65.081
-66.922
-70.564
-75.004
-78.171
-78.208
-73.881
-65.374
-54.067
-40.132
-23.548
-3.039
24.786
60.597
104.313
154.488
204.621
249.016
281.218
292.929
279.701
238.619
170.448
82.593
-16.281
-118.512
-219.575
-321.683
-426.619
-528.929
-627.994
-722.695
-785.983
-794.279
-768.619
-736.134
-695.23
-642.158
-581.505
-513.978
-438.877
-360.749
-287.696
-225.81
-178.58
-145.469
-121.725
-103.724
-89.505
-78.547
-71.803
-68.76
-67.57
-66.223
-63.039
-57.641
-50.48
-42.062
-33.106
-24.324
-16.488
-10.551
-6.927
-5.506
-5.983
-7.851
-10.622
-13.879
-17.099
-19.704
-21.352
-21.906
-21.373
-19.895
-17.595
-14.557
-10.912
-6.811
-2.388
2.23
6.942
11.671
16.334
20.835
25.086
29.003
32.516
35.595
38.236
40.458
42.29
43.772
44.946
45.864
46.588
47.176
47.687
48.172
48.68
49.259
49.96
50.831
51.917
53.246
54.832
56.684
58.806
61.2
63.87
66.809
70.002
73.435
77.094
80.963
85.027
89.26
93.628
98.098
102.634
107.214
111.824
116.446
121.061
125.651
130.195
134.68
139.11
143.48
147.781
152.005
156.145
160.209
164.224
168.206
172.163
176.088
179.952
183.73
187.399
190.925
194.27
197.377
200.172
202.595
204.605
206.155
207.205
207.697
207.552
206.711
205.134
202.801
199.72
195.897
191.342
186.09
180.192
173.723
166.778
159.436
151.755
143.799
135.627
127.315
118.957
110.628
102.383
94.273
86.33
78.589
71.086
63.834
56.829
50.052
43.472
37.074
30.856
24.818
18.957
13.268
7.736
2.358
-2.859
-7.909
-12.786
-17.487
-22.013
-26.354
-30.491
-34.405
-38.073
-41.483
-44.63
-47.512
-50.129
-52.482
-54.576
-56.418
-58.024
-59.406
-60.575
-61.542
-62.316
-62.91
-63.34
-63.621
-63.769
-63.797
-63.718
-63.545
-63.29
-62.964
-62.576
-62.134
-61.645
-61.116
-60.555
-59.971
-59.371
-58.76
-58.145
-57.533
-56.927
-56.333
-55.753
-55.19
-54.644
-54.117
-53.609
-53.121
-52.651
-52.199
-51.766
-51.353
-50.96
-50.588
-50.237
-49.909
-49.603
-49.321
-49.063
-48.827
-48.612
-48.419
-48.247
-48.1
-47.981
-47.889
-47.826
-47.794
-47.793
-47.825
-47.891
-47.988
-48.116
-48.277
-48.477
-48.728
-49.041
-49.421
-49.872
-50.393
-50.98
-51.628
-52.326
-53.052
-53.788
-54.514
-55.216
-55.887
-56.511
-57.074
-57.549
-57.903
-58.113
-58.166
-58.059
-57.799
-57.4
-56.885
-56.295
-55.678
-55.075
-54.522
-54.052
-53.696
-53.51
-53.544
-53.856
-54.547
-55.662
-57.207
-59.132
-61.267
-63.368
-65.191
-66.519
-67.127
-66.892
-65.808
-63.981
-61.772
-59.885
-58.9
-58.701
-58.808
-58.296
-56.711
-55.288
-56.403
-60.886
-62.322
-57.915
-63.103
-70.413
-22.737
91.437
188.929
220.89
231.756
251.486
260.921
251.94
234.6
213.998
190.549
167.972
151.989
144.34
144.702
150.096
154.271
154.166
149.32
140.602
131.137
122.586
114.896
107.851
100.779
93.488
86.485
80.235
74.947
70.64
67.202
64.49
62.433
60.968
59.959
59.267
58.8
58.484
58.272
58.12
57.929
57.605
57.079
56.285
55.196
53.803
52.091
50.064
47.742
45.16
42.374
39.448
36.431
33.372
30.318
27.321
24.46
21.8
19.387
17.255
15.415
13.875
12.64
11.697
11.008
10.514
10.146
9.829
9.509
9.133
8.645
7.998
7.123
5.947
4.414
2.482
0.124
-2.661
-5.885
-9.588
-13.711
-18.098
-22.508
-26.591
-30.063
-32.759
-34.477
-34.944
-34.033
-31.812
-28.613
-25.129
-21.923
-19.287
-17.553
-17.049
-17.987
-20.081
-22.184
-22.685
-20.098
-13.949
-5.211
5.33
17.571
32.121
51.764
78.988
114.354
157.758
205.664
252.024
290.97
314.855
317.095
294.084
244.452
172.177
84.366
-11.741
-110.404
-210.856
-314.001
-418.945
-520.957
-609.757
-674.812
-709.813
-714.667
-695.474
-659.651
-612.934
-558.616
-498.193
-434.338
-370.733
-310.772
-257.16
-210.362
-169.856
-135.656
-108.022
-87.605
-74.547
-67.915
-65.767
-65.729
-65.8
-64.445
-60.998
-55.563
-48.366
-39.817
-30.632
-21.509
-13.249
-6.706
-2.178
0.412
1.29
0.892
-0.344
-2.044
-3.743
-4.976
-5.488
-5.158
-3.982
-2.074
0.477
3.589
7.146
11.031
15.137
19.371
23.662
27.952
32.177
36.277
40.19
43.862
47.249
50.307
53.022
55.402
57.467
59.251
60.791
62.124
63.3
64.371
65.389
66.403
67.454
68.579
69.817
71.209
72.789
74.595
76.647
78.954
81.523
84.357
87.456
90.82
94.441
98.299
102.38
106.667
111.143
115.785
120.566
125.445
130.388
135.371
140.37
145.371
150.356
155.305
160.2
165.022
169.758
174.397
178.923
183.316
187.565
191.67
195.641
199.508
203.277
206.935
210.464
213.837
217.022
219.993
222.714
225.138
227.228
228.954
230.292
231.231
231.736
231.757
231.232
230.081
228.253
225.735
222.517
218.604
214.014
208.769
202.908
196.494
189.566
182.15
174.276
165.966
157.276
148.288
139.102
129.833
120.577
111.399
102.364
93.526
84.924
76.592
68.55
60.8
53.37
46.306
39.651
33.441
27.684
22.359
17.429
12.843
8.555
4.537
0.758
-2.803
-6.161
-9.324
-12.295
-15.069
-17.664
-20.114
-22.452
-24.704
-26.883
-28.982
-30.984
-32.866
-34.605
-36.184
-37.591
-38.82
-39.873
-40.758
-41.484
-42.067
-42.513
-42.818
-42.981
-43.001
-42.887
-42.65
-42.311
-41.893
-41.417
-40.906
-40.38
-39.852
-39.333
-38.831
-38.349
-37.889
-37.454
-37.05
-36.68
-36.352
-36.066
-35.826
-35.631
-35.478
-35.364
-35.287
-35.243
-35.229
-35.241
-35.28
-35.343
-35.431
-35.542
-35.676
-35.831
-36.005
-36.194
-36.397
-36.611
-36.832
-37.059
-37.289
-37.519
-37.748
-37.976
-38.199
-38.417
-38.628
-38.832
-39.027
-39.213
-39.39
-39.556
-39.714
-39.861
-39.999
-40.129
-40.25
-40.364
-40.473
-40.576
-40.675
-40.771
-40.866
-40.961
-41.056
-41.154
-41.256
-41.363
-41.476
-41.598
-41.729
-41.871
-42.027
-42.195
-42.379
-42.577
-42.792
-43.022
-43.269
-43.531
-43.808
-44.1
-44.406
-44.724
-45.052
-45.39
-45.736
-46.086
-46.44
-46.793
-47.145
-47.49
-47.827
-48.152
-48.46
-48.749
-49.014
-49.251
-49.457
-49.626
-49.756
-49.84
-49.876
-49.858
-49.783
-49.647
-49.445
-49.177
-48.837
-48.426
-47.941
-47.382
-46.749
-46.045
-45.269
-44.425
-43.515
-42.542
-41.51
-40.424
-39.287
-38.105
-36.883
-35.628
-34.347
-33.048
-31.74
-30.431
-29.129
-27.843
-26.582
-25.356
-24.172
-23.038
-21.963
-20.954
-20.019
-19.171
-18.416
-17.756
-17.192
-16.723
-16.343
-16.049
-15.833
-15.678
-15.572
-15.503
-15.457
-15.432
-15.417
-15.404
-15.381
-15.331
-15.243
-15.119
-14.959
-14.772
-14.571
-14.364
-14.175
-14.05
-14.026
-14.143
-14.447
-14.959
-15.71
-16.733
-18.048
-19.689
-21.694
-24.08
-26.874
-30.09
-33.703
-37.721
-42.154
-46.916
-51.86
-56.755
-61.251
-65.077
-68.055
-69.959
-70.524
-69.61
-67.297
-63.959
-60.279
-56.861
-53.987
-51.919
-51.07
-51.692
-53.7
-56.197
-57.388
-55.681
-49.995
-40.444
-28.134
-13.18
4.361
25.49
52.916
86.911
127.055
171.822
215.802
254.445
282.536
293.165
281.58
244.157
181.149
97.994
2.55
-97.451
-198.47
-300.092
-402.379
-502.752
-593.008
-663.029
-705
-716.481
-701.537
-667.23
-619.877
-563.354
-499.656
-431.015
-361.673
-296.965
-241.155
-196.325
-161.258
-132.985
-109.608
-90.073
-74.662
-64.499
-58.902
-56.255
-54.739
-52.191
-47.748
-41.615
-34.057
-25.571
-16.834
-8.378
-0.877
4.894
8.713
10.725
11.18
10.512
9.162
7.494
5.972
5.089
5.087
6.049
7.957
10.672
14.091
18.134
22.668
27.549
32.646
37.846
43.063
48.232
53.27
58.087
62.594
66.707
70.379
73.594
76.35
78.67
80.579
82.112
83.316
84.246
84.955
85.497
85.919
86.265
86.583
86.921
87.329
87.858
88.543
89.408
90.471
91.739
93.221
94.921
96.843
98.98
101.324
103.867
106.599
109.51
112.588
115.812
119.154
122.587
126.087
129.631
133.207
136.802
140.4
143.985
147.539
151.051
154.522
157.956
161.354
164.717
168.048
171.36
174.682
178.033
181.422
184.849
188.297
191.74
195.162
198.542
201.852
205.059
208.109
210.938
213.496
215.73
217.579
218.975
219.823
220.038
219.566
218.372
216.444
213.78
210.377
206.241
201.391
195.857
189.686
182.938
175.661
167.912
159.767
151.321
142.694
134.012
125.367
116.831
108.461
100.301
92.403
84.81
77.55
70.649
64.128
58.006
52.308
47.047
42.214
37.778
33.687
29.872
26.289
22.91
19.71
16.674
13.787
11.032
8.403
5.894
3.491
1.17
-1.092
-3.316
-5.505
-7.646
-9.716
-11.678
-13.509
-15.192
-16.716
-18.078
-19.276
-20.315
-21.202
-21.949
-22.56
-23.031
-23.361
-23.546
-23.594
-23.518
-23.337
-23.076
-22.758
-22.402
-22.027
-21.645
-21.265
-20.897
-20.542
-20.201
-19.877
-19.577
-19.304
-19.065
-18.864
-18.701
-18.576
-18.488
-18.434
-18.41
-18.414
-18.443
-18.494
-18.566
-18.66
-18.775
-18.911
-19.067
-19.243
-19.436
-19.643
-19.863
-20.093
-20.331
-20.573
-20.818
-21.065
-21.31
-21.553
-21.792
-22.026
-22.253
-22.473
-22.684
-22.885
-23.074
-23.253
-23.419
-23.574
-23.715
-23.844
-23.961
-24.066
-24.158
-24.239
-24.308
-24.366
-24.413
-24.449
-24.475
-24.49
-24.497
-24.494
-24.484
-24.467
-24.444
-24.417
-24.386
-24.352
-24.316
-24.279
-24.243
-24.208
-24.176
-24.148
-24.125
-24.109
-24.102
-24.103
-24.116
-24.141
-24.181
-24.236
-24.307
-24.398
-24.509
-24.641
-24.796
-24.976
-25.181
-25.413
-25.673
-25.961
-26.277
-26.621
-26.994
-27.394
-27.822
-28.275
-28.754
-29.257
-29.782
-30.326
-30.889
-31.467
-32.058
-32.657
-33.262
-33.868
-34.472
-35.069
-35.655
-36.225
-36.774
-37.296
-37.788
-38.242
-38.653
-39.016
-39.325
-39.575
-39.761
-39.878
-39.923
-39.891
-39.78
-39.588
-39.314
-38.957
-38.516
-37.991
-37.383
-36.693
-35.923
-35.075
-34.152
-33.155
-32.09
-30.962
-29.778
-28.543
-27.264
-25.948
-24.603
-23.236
-21.855
-20.469
-19.084
-17.708
-16.348
-15.015
-13.72
-12.472
-11.273
-10.126
-9.031
-7.984
-6.986
-6.027
-5.096
-4.181
-3.272
-2.36
-1.444
-0.516
0.43
1.401
2.412
3.471
4.571
5.71
6.876
8.048
9.215
10.347
11.391
12.306
13.045
13.557
13.812
13.776
13.408
12.683
11.562
10.004
7.989
5.492
2.506
-0.945
-4.857
-9.239
-14.005
-19.008
-24.013
-28.683
-32.752
-36.033
-38.295
-39.248
-38.7
-36.706
-33.625
-30.072
-26.611
-23.571
-21.248
-20.123
-20.623
-22.463
-24.528
-25.309
-23.232
-17.939
-10.299
-0.656
11.107
25.928
45.891
72.817
107.438
149.446
197.165
246.274
290.91
324.251
338.092
326.012
285.174
217.081
128.349
28.287
-75.351
-178.84
-282.502
-386.76
-486.006
-578.095
-662.868
-717.155
-720.19
-692.28
-657.62
-613.347
-555.85
-490.174
-418.943
-344.46
-272.22
-208.796
-158.163
-120.827
-94.639
-75.577
-60.774
-49.286
-41.194
-36.876
-35.547
-35.462
-34.722
-31.972
-27.032
-20.305
-12.341
-3.962
4.122
11.202
16.488
19.728
21.078
20.826
19.439
17.382
15.053
12.926
11.494
11.002
11.521
13.019
15.345
18.386
22.053
26.214
30.723
35.454
40.295
45.159
49.981
54.679
59.164
63.35
67.154
70.534
73.475
75.982
78.08
79.797
81.172
82.251
83.093
83.751
84.281
84.729
85.138
85.559
86.039
86.626
87.369
88.297
89.432
90.789
92.374
94.19
96.239
98.512
100.998
103.693
106.591
109.689
112.98
116.447
120.071
123.838
127.727
131.72
135.797
139.93
144.1
148.298
152.513
156.735
160.949
165.126
169.241
173.264
177.177
180.969
184.626
188.124
191.448
194.587
197.536
200.3
202.863
205.184
207.226
208.956
210.351
211.407
212.114
212.459
212.428
212.002
211.171
209.94
208.298
206.229
203.715
200.729
197.277
193.404
189.145
184.536
179.605
174.366
168.844
163.074
157.086
150.907
144.564
138.07
131.459
124.775
118.062
111.373
104.733
98.141
91.603
85.129
78.732
72.432
66.243
60.168
54.219
48.415
42.776
37.322
32.065
27.002
22.135
17.461
12.986
8.725
4.689
0.885
-2.683
-6.013
-9.103
-11.945
-14.542
-16.904
-19.039
-20.959
-22.672
-24.183
-25.499
-26.63
-27.587
-28.381
-29.024
-29.528
-29.905
-30.167
-30.328
-30.402
-30.399
-30.331
-30.205
-30.033
-29.823
-29.585
-29.328
-29.058
-28.784
-28.513
-28.251
-28.005
-27.779
-27.579
-27.406
-27.265
-27.158
-27.087
-27.052
-27.056
-27.096
-27.175
-27.291
-27.442
-27.629
-27.848
-28.099
-28.38
-28.687
-29.018
-29.371
-29.743
-30.131
-30.533
-30.945
-31.366
-31.793
-32.223
-32.654
-33.085
-33.512
-33.935
-34.352
-34.76
-35.159
-35.548
-35.925
-36.29
-36.641
-36.98
-37.304
-37.614
-37.91
-38.192
-38.46
-38.713
-38.951
-39.176
-39.387
-39.584
-39.769
-39.94
-40.099
-40.246
-40.381
-40.505
-40.619
-40.722
-40.815
-40.898
-40.973
-41.038
-41.096
-41.145
-41.187
-41.222
-41.251
-41.274
-41.291
-41.304
-41.312
-41.316
-41.317
-41.316
-41.314
-41.31
-41.307
-41.306
-41.308
-41.313
-41.324
-41.341
-41.366
-41.401
-41.447
-41.505
-41.578
-41.666
-41.772
-41.896
-42.04
-42.206
-42.394
-42.605
-42.84
-43.099
-43.382
-43.689
-44.02
-44.373
-44.749
-45.145
-45.561
-45.994
-46.443
-46.906
-47.379
-47.861
-48.347
-48.834
-49.318
-49.796
-50.263
-50.714
-51.145
-51.551
-51.927
-52.268
-52.569
-52.823
-53.026
-53.172
-53.255
-53.273
-53.219
-53.091
-52.885
-52.598
-52.231
-51.781
-51.249
-50.636
-49.941
-49.167
-48.314
-47.387
-46.387
-45.317
-44.182
-42.988
-41.74
-40.446
-39.114
-37.751
-36.366
-34.966
-33.561
-32.158
-30.768
-29.396
-28.051
-26.744
-25.483
-24.282
-23.15
-22.091
-21.106
-20.195
-19.356
-18.583
-17.869
-17.198
-16.562
-15.951
-15.358
-14.779
-14.209
-13.637
-13.056
-12.451
-11.814
-11.146
-10.449
-9.729
-9.002
-8.288
-7.616
-7.028
-6.561
-6.247
-6.121
-6.216
-6.564
-7.202
-8.161
-9.458
-11.119
-13.168
-15.628
-18.523
-21.846
-25.563
-29.644
-34.076
-38.79
-43.648
-48.417
-52.752
-56.36
-59.048
-60.609
-60.774
-59.414
-56.615
-52.736
-48.506
-44.555
-41.249
-38.977
-38.123
-38.927
-41.088
-43.4
-44.155
-41.819
-35.9
-27.266
-16.597
-3.603
12.787
35.048
65.179
102.65
146.039
192.319
236.395
273.97
299.421
305.709
287.922
242.94
172.247
82.753
-17.18
-120.373
-223.594
-327.819
-433.168
-533.399
-625.482
-708.246
-759.052
-758.301
-726.035
-686.132
-636.441
-573.712
-502.766
-426.306
-347.333
-272.486
-209.176
-161.45
-128.971
-107.966
-93.118
-81.248
-71.725
-64.967
-61.546
-60.46
-59.635
-57.518
-53.194
-46.676
-38.582
-29.604
-20.613
-12.57
-6.394
-2.536
-0.919
-1.236
-2.995
-5.711
-8.949
-12.171
-14.797
-16.467
-17.044
-16.523
-15.039
-12.709
-9.607
-5.857
-1.607
3.014
7.88
12.894
17.98
23.049
27.999
32.735
37.167
41.219
44.854
48.059
50.842
53.23
55.253
56.952
58.374
59.576
60.613
61.538
62.4
63.243
64.114
65.059
66.124
67.35
68.763
70.379
72.209
74.254
76.518
78.996
81.682
84.566
87.636
90.885
94.304
97.887
101.624
105.501
109.506
113.625
117.843
122.147
126.522
130.952
135.422
139.915
144.414
148.902
153.361
157.771
162.112
166.363
170.503
174.511
178.368
182.053
185.546
188.829
191.885
194.697
197.248
199.525
201.513
203.2
204.575
205.628
206.349
206.733
206.772
206.462
205.801
204.788
203.423
201.707
199.644
197.24
194.501
191.436
188.053
184.365
180.384
176.122
171.596
166.821
161.815
156.595
151.18
145.59
139.845
133.966
127.972
121.887
115.73
109.523
103.287
97.043
90.812
84.614
78.47
72.398
66.418
60.547
54.803
49.201
43.756
38.483
33.395
28.502
23.816
19.344
15.096
11.076
7.291
3.743
0.435
-2.633
-5.46
-8.048
-10.401
-12.523
-14.419
-16.094
-17.557
-18.816
-19.879
-20.757
-21.459
-21.996
-22.381
-22.624
-22.738
-22.734
-22.627
-22.427
-22.147
-21.8
-21.397
-20.95
-20.47
-19.968
-19.455
-18.941
-18.434
-17.942
-17.475
-17.039
-16.641
-16.286
-15.979
-15.724
-15.525
-15.385
-15.305
-15.286
-15.329
-15.433
-15.599
-15.823
-16.106
-16.443
-16.832
-17.27
-17.753
-18.277
-18.837
-19.429
-20.049
-20.691
-21.351
-22.024
-22.705
-23.39
-24.073
-24.751
-25.419
-26.073
-26.709
-27.324
-27.914
-28.477
-29.01
-29.51
-29.977
-30.407
-30.802
-31.158
-31.477
-31.757
-32
-32.205
-32.373
-32.506
-32.604
-32.669
-32.703
-32.708
-32.685
-32.637
-32.566
-32.474
-32.364
-32.237
-32.097
-31.944
-31.781
-31.611
-31.436
-31.256
-31.075
-30.894
-30.714
-30.536
-30.363
-30.194
-30.031
-29.874
-29.724
-29.582
-29.447
-29.32
-29.202
-29.091
-28.988
-28.892
-28.804
-28.723
-28.648
-28.579
-28.516
-28.457
-28.404
-28.355
-28.311
-28.272
-28.237
-28.206
-28.181
-28.16
-28.144
-28.133
-28.129
-28.131
-28.14
-28.157
-28.182
-28.217
-28.262
-28.317
-28.383
-28.46
-28.549
-28.649
-28.76
-28.883
-29.016
-29.16
-29.313
-29.475
-29.645
-29.822
-30.004
-30.189
-30.376
-30.562
-30.744
-30.92
-31.086
-31.24
-31.377
-31.495
-31.589
-31.656
-31.691
-31.69
-31.65
-31.565
-31.432
-31.247
-31.005
-30.704
-30.342
-29.915
-29.422
-28.864
-28.24
-27.551
-26.796
-25.978
-25.099
-24.159
-23.162
-22.111
-21.008
-19.858
-18.665
-17.436
-16.177
-14.895
-13.597
-12.29
-10.98
-9.676
-8.387
-7.119
-5.878
-4.672
-3.508
-2.394
-1.342
-0.358
0.556
1.399
2.174
2.882
3.528
4.118
4.669
5.193
5.702
6.206
6.709
7.219
7.744
8.294
8.884
9.52
10.197
10.909
11.647
12.4
13.151
13.871
14.511
15.026
15.368
15.489
15.352
14.916
14.139
12.995
11.447
9.463
7.023
4.104
0.688
-3.206
-7.574
-12.432
-17.674
-23.133
-28.563
-33.574
-37.852
-41.209
-43.376
-44.042
-43.177
-40.901
-37.619
-34.201
-31.226
-28.901
-27.648
-27.828
-29.376
-32.153
-35.055
-35.793
-32.91
-25.412
-13.215
1.986
19.374
38.672
60.508
87.58
120.908
160.344
204.113
246.443
282.012
304.638
306.936
284.811
235.858
162.182
71.302
-28.705
-131.159
-233.765
-337.528
-442.505
-544.744
-634.98
-702.419
-739.219
-743.825
-721.192
-678.885
-623.764
-559.693
-487.824
-410.101
-330.606
-255.274
-190.815
-140.598
-103.69
-77.193
-57.356
-42.501
-33.729
-31.04
-32.767
-35.918
-36.035
-31.354
-23.143
-13.033
-3.321
4.976
12.539
19.316
24.961
29.2
31.456
31.733
30.532
28.317
25.63
23.063
21.143
20.191
20.337
21.556
23.688
26.612
30.254
34.487
39.165
44.156
49.32
54.556
59.801
64.96
69.93
74.608
78.89
82.717
86.074
88.959
91.393
93.407
95.033
96.319
97.328
98.116
98.743
99.262
99.72
100.17
100.667
101.266
102.02
102.967
104.13
105.526
107.164
109.048
111.183
113.563
116.178
119.02
122.083
125.361
128.85
132.539
136.417
140.472
144.688
149.051
153.547
158.161
162.878
167.679
172.548
177.468
182.419
187.383
192.338
197.262
202.13
206.919
211.607
216.17
220.584
224.826
228.877
232.714
236.318
239.672
242.757
245.558
248.06
250.249
252.114
253.644
254.831
255.668
256.149
256.271
256.033
255.434
254.477
253.165
251.504
249.501
247.165
244.507
241.54
238.276
234.731
230.921
226.865
222.579
218.085
213.402
208.551
203.554
198.431
193.204
187.895
182.525
177.114
171.684
166.253
160.841
155.466
150.146
144.898
139.736
134.675
129.728
124.906
120.22
115.679
111.289
107.056
102.986
99.08
95.34
91.766
88.356
85.107
82.015
79.075
76.278
73.619
71.087
68.674
66.37
64.162
62.042
59.996
58.014
56.084
54.194
52.333
50.491
48.655
46.818
44.968
43.098
41.199
39.264
37.286
35.261
33.184
31.051
28.86
26.609
24.299
21.929
19.502
17.019
14.484
11.902
9.277
6.614
3.921
1.205
-1.528
-4.27
-7.013
-9.748
-12.468
-15.165
-17.829
-20.455
-23.034
-25.558
-28.022
-30.418
-32.742
-34.987
-37.15
-39.226
-41.212
-43.106
-44.904
-46.607
-48.214
-49.725
-51.14
-52.461
-53.69
-54.829
-55.883
-56.853
-57.745
-58.562
-59.309
-59.991
-60.614
-61.182
-61.701
-62.176
-62.612
-63.014
-63.388
-63.738
-64.068
-64.384
-64.687
-64.983
-65.274
-65.564
-65.853
-66.146
-66.442
-66.743
-67.051
-67.365
-67.686
-68.013
-68.346
-68.684
-69.025
-69.37
-69.715
-70.06
-70.403
-70.741
-71.074
-71.398
-71.713
-72.017
-72.307
-72.581
-72.84
-73.08
-73.3
-73.501
-73.68
-73.838
-73.974
-74.089
-74.181
-74.252
-74.303
-74.334
-74.347
-74.342
-74.322
-74.287
-74.241
-74.185
-74.121
-74.051
-73.977
-73.902
-73.826
-73.752
-73.681
-73.615
-73.555
-73.501
-73.456
-73.418
-73.39
-73.371
-73.361
-73.36
-73.368
-73.384
-73.407
-73.436
-73.47
-73.506
-73.542
-73.577
-73.608
-73.633
-73.649
-73.653
-73.642
-73.613
-73.562
-73.486
-73.383
-73.248
-73.079
-72.874
-72.632
-72.35
-72.028
-71.665
-71.264
-70.824
-70.346
-69.832
-69.284
-68.703
-68.093
-67.456
-66.794
-66.111
-65.411
-64.699
-63.979
-63.258
-62.54
-61.83
-61.134
-60.456
-59.803
-59.179
-58.59
-58.038
-57.528
-57.066
-56.66
-56.314
-56.028
-55.798
-55.619
-55.488
-55.395
-55.333
-55.284
-55.234
-55.171
-55.082
-54.962
-54.804
-54.599
-54.334
-53.992
-53.566
-53.057
-52.474
-51.826
-51.125
-50.384
-49.634
-48.92
-48.287
-47.78
-47.437
-47.285
-47.364
-47.704
-48.339
-49.305
-50.63
-52.338
-54.441
-56.949
-59.851
-63.14
-66.819
-70.792
-74.902
-78.924
-82.535
-85.461
-87.532
-88.508
-88.091
-86.241
-83.067
-78.909
-74.549
-70.525
-67.038
-64.545
-63.484
-63.857
-65.61
-67.763
-68.14
-65.381
-58.527
-47.511
-33.996
-18.837
-2.355
16.541
40.954
72.805
112.875
158.738
203.986
241.383
262.581
260.371
231.123
174.993
97.161
6.293
-89.004
-184.016
-278.706
-374.895
-472.91
-567.208
-647.441
-703.913
-730.097
-726.261
-698.101
-651.442
-592.356
-525.238
-453.352
-382.074
-316.287
-259.515
-213.833
-177.802
-148.467
-124.048
-103.434
-86.96
-76.027
-70.175
-67.78
-66.84
-64.908
-60.92
-55.05
-47.633
-39.177
-30.32
-21.609
-13.764
-7.677
-3.697
-1.714
-1.47
-2.524
-4.428
-6.81
-9.195
-11.048
-12.055
-12.095
-11.16
-9.37
-6.83
-3.609
0.179
4.398
8.928
13.654
18.486
23.355
28.187
32.894
37.39
41.594
45.436
48.882
51.924
54.572
56.851
58.792
60.434
61.824
63.017
64.069
65.029
65.945
66.856
67.808
68.845
70.01
71.344
72.873
74.613
76.573
78.759
81.172
83.809
86.665
89.728
92.986
96.433
100.058
103.855
107.812
111.916
116.151
120.502
124.953
129.489
134.093
138.747
143.434
148.134
152.829
157.5
162.127
166.69
171.165
175.53
179.764
183.845
187.751
191.461
194.956
198.216
201.223
203.961
206.414
208.568
210.41
211.928
213.111
213.952
214.443
214.579
214.355
213.769
212.82
211.511
209.843
207.821
205.451
202.742
199.702
196.342
192.674
188.713
184.472
179.968
175.219
170.241
165.054
159.678
154.132
148.437
142.614
136.684
130.668
124.586
118.46
112.309
106.155
100.016
93.912
87.861
81.881
75.989
70.201
64.532
58.996
53.606
48.375
43.311
38.426
33.727
29.222
24.916
20.813
16.918
13.232
9.756
6.49
3.433
0.582
-2.065
-4.514
-6.769
-8.835
-10.719
-12.427
-13.968
-15.349
-16.578
-17.664
-18.614
-19.439
-20.147
-20.746
-21.245
-21.654
-21.98
-22.231
-22.416
-22.542
-22.616
-22.646
-22.638
-22.598
-22.531
-22.443
-22.339
-22.221
-22.096
-21.964
-21.831
-21.697
-21.565
-21.436
-21.312
-21.193
-21.081
-20.976
-20.877
-20.786
-20.701
-20.623
-20.551
-20.486
-20.425
-20.37
-20.318
-20.271
-20.228
-20.188
-20.15
-20.116
-20.083
-20.053
-20.024
-19.997
-19.972
-19.949
-19.928
-19.91
-19.894
-19.881
-19.872
-19.866
-19.865
-19.869
-19.879
-19.895
-19.919
-19.949
-19.988
-20.035
-20.092
-20.158
-20.234
-20.32
-20.416
-20.522
-20.638
-20.764
-20.9
-21.045
-21.2
-21.364
-21.536
-21.717
-21.906
-22.103
-22.308
-22.52
-22.739
-22.966
-23.199
-23.438
-23.684
-23.937
-24.196
-24.461
-24.732
-25.008
-25.289
-25.575
-25.866
-26.16
-26.457
-26.757
-27.057
-27.359
-27.66
-27.961
-28.26
-28.557
-28.849
-29.138
-29.42
-29.695
-29.961
-30.217
-30.461
-30.691
-30.904
-31.099
-31.273
-31.424
-31.548
-31.644
-31.707
-31.735
-31.726
-31.676
-31.582
-31.443
-31.256
-31.019
-30.731
-30.392
-30.001
-29.56
-29.069
-28.529
-27.941
-27.307
-26.629
-25.909
-25.149
-24.351
-23.518
-22.653
-21.762
-20.849
-19.921
-18.981
-18.037
-17.093
-16.156
-15.23
-14.323
-13.438
-12.582
-11.76
-10.979
-10.25
-9.576
-8.959
-8.398
-7.89
-7.428
-7.006
-6.612
-6.233
-5.855
-5.467
-5.059
-4.628
-4.164
-3.659
-3.103
-2.481
-1.784
-1.017
-0.182
0.707
1.628
2.565
3.487
4.345
5.098
5.706
6.128
6.335
6.29
5.947
5.272
4.234
2.807
0.97
-1.3
-4.015
-7.168
-10.73
-14.666
-18.954
-23.501
-28.144
-32.643
-36.659
-39.897
-42.182
-43.281
-42.892
-40.992
-37.729
-33.493
-29.101
-25.098
-21.742
-19.536
-18.92
-19.925
-22.121
-24.141
-24.049
-20.544
-13.425
-3.556
8.301
21.852
37.795
58.757
86.624
122.157
165.092
211.074
253.967
287.103
302.313
293.487
257.69
195.652
112.954
18.1
-81.338
-181.728
-282.453
-384.422
-486.283
-580.83
-658.738
-711.517
-733.852
-727.483
-697.534
-649.569
-589.858
-521.931
-448.99
-375.743
-306.057
-244.561
-194.288
-155.016
-125.207
-101.92
-82.873
-67.545
-56.22
-49.181
-45.593
-43.654
-41.345
-37.292
-31.314
-23.784
-15.162
-6.132
2.684
10.593
16.714
20.684
22.615
22.774
21.619
19.604
17.107
14.608
12.645
11.542
11.427
12.304
14.044
16.536
19.708
23.441
27.599
32.058
36.702
41.435
46.191
50.894
55.454
59.789
63.812
67.452
70.675
73.472
75.856
77.854
79.498
80.826
81.888
82.741
83.441
84.039
84.582
85.11
85.669
86.301
87.054
87.966
89.064
90.365
91.877
93.602
95.543
97.695
100.05
102.594
105.316
108.206
111.255
114.454
117.791
121.252
124.821
128.483
132.221
136.02
139.863
143.734
147.615
151.488
155.336
159.141
162.886
166.55
170.113
173.555
176.856
179.996
182.957
185.72
188.266
190.581
192.648
194.455
195.989
197.238
198.192
198.843
199.184
199.208
198.91
198.288
197.341
196.067
194.469
192.549
190.313
187.765
184.913
181.766
178.334
174.629
170.662
166.449
162.003
157.341
152.479
147.435
142.226
136.872
131.392
125.805
120.131
114.388
108.597
102.777
96.946
91.124
85.328
79.576
73.885
68.272
62.753
57.342
52.054
46.902
41.899
37.055
32.382
27.888
23.581
19.468
15.555
11.846
8.345
5.054
1.974
-0.895
-3.554
-6.006
-8.253
-10.299
-12.151
-13.812
-15.289
-16.59
-17.722
-18.693
-19.51
-20.182
-20.719
-21.129
-21.421
-21.605
-21.689
-21.683
-21.596
-21.436
-21.213
-20.933
-20.606
-20.239
-19.84
-19.414
-18.969
-18.51
-18.043
-17.572
-17.103
-16.639
-16.183
-15.739
-15.309
-14.895
-14.499
-14.122
-13.765
-13.429
-13.114
-12.82
-12.548
-12.297
-12.067
-11.858
-11.668
-11.498
-11.347
-11.213
-11.097
-10.997
-10.913
-10.844
-10.79
-10.749
-10.721
-10.707
-10.704
-10.713
-10.734
-10.767
-10.81
-10.865
-10.931
-11.008
-11.097
-11.198
-11.31
-11.434
-11.571
-11.72
-11.881
-12.055
-12.241
-12.44
-12.652
-12.875
-13.111
-13.358
-13.617
-13.887
-14.168
-14.459
-14.76
-15.07
-15.389
-15.717
-16.051
-16.394
-16.742
-17.097
-17.458
-17.825
-18.196
-18.573
-18.955
-19.342
-19.733
-20.128
-20.529
-20.934
-21.344
-21.76
-22.181
-22.609
-23.043
-23.484
-23.933
-24.39
-24.854
-25.327
-25.809
-26.298
-26.795
-27.3
-27.811
-28.329
-28.853
-29.383
-29.916
-30.452
-30.989
-31.525
-32.059
-32.588
-33.109
-33.62
-34.118
-34.599
-35.06
-35.498
-35.909
-36.289
-36.635
-36.941
-37.205
-37.421
-37.585
-37.694
-37.745
-37.734
-37.659
-37.517
-37.309
-37.033
-36.69
-36.279
-35.802
-35.259
-34.651
-33.982
-33.254
-32.467
-31.626
-30.735
-29.798
-28.822
-27.812
-26.774
-25.715
-24.641
-23.56
-22.479
-21.407
-20.348
-19.308
-18.293
-17.311
-16.373
-15.486
-14.652
-13.871
-13.144
-12.469
-11.845
-11.263
-10.707
-10.163
-9.615
-9.055
-8.48
-7.882
-7.254
-6.587
-5.866
-5.088
-4.259
-3.385
-2.473
-1.534
-0.581
0.35
1.204
1.927
2.458
2.749
2.763
2.459
1.804
0.755
-0.737
-2.706
-5.178
-8.174
-11.693
-15.75
-20.379
-25.516
-30.995
-36.574
-41.904
-46.68
-50.715
-53.775
-55.564
-55.926
-54.925
-52.873
-50.386
-48.053
-46.102
-44.673
-44.099
-44.549
-45.833
-47.502
-48.235
-46.188
-40.396
-30.125
-15.127
3.027
23.032
44.106
65.68
89.808
118.92
153.853
194.06
235.286
271.17
294.711
298.036
275.597
224.885
147.826
51.857
-54.546
-164.141
-273.803
-383.222
-488.011
-588.062
-683.737
-751.699
-769.722
-754.167
-726.677
-685.141
-627.712
-560.34
-485.709
-405.975
-326.923
-255.651
-197.325
-154.017
-123.598
-101.504
-84.399
-70.574
-60.426
-55.049
-53.723
-54.546
-55.16
-53.653
-49.68
-43.693
-36.182
-27.903
-19.575
-11.976
-6.118
-2.462
-0.907
-1.165
-2.749
-5.163
-7.993
-10.714
-12.723
-13.692
-13.51
-12.196
-9.918
-6.807
-2.949
1.508
6.402
11.59
16.941
22.354
27.758
33.059
38.156
42.951
47.349
51.296
54.777
57.792
60.363
62.522
64.305
65.763
66.952
67.929
68.75
69.467
70.125
70.773
71.463
72.242
73.159
74.247
75.524
77.004
78.692
80.59
82.698
85.009
87.513
90.2
93.063
96.095
99.289
102.636
106.125
109.741
113.472
117.302
121.22
125.211
129.26
133.352
137.47
141.599
145.722
149.823
153.88
157.875
161.786
165.593
169.276
172.814
176.188
179.377
182.363
185.13
187.66
189.939
191.951
193.684
195.125
196.263
197.09
197.596
197.776
197.625
197.138
196.314
195.152
193.653
191.82
189.657
187.169
184.365
181.251
177.838
174.138
170.162
165.925
161.44
156.725
151.796
146.669
141.364
135.898
130.292
124.565
118.736
112.826
106.854
100.84
94.803
88.763
82.738
76.747
70.808
64.937
59.152
53.467
47.898
42.459
37.162
32.02
27.043
22.242
17.624
13.197
8.969
4.943
1.125
-2.483
-5.878
-9.061
-12.031
-14.789
-17.338
-19.681
-21.821
-23.764
-25.515
-27.079
-28.465
-29.678
-30.727
-31.618
-32.362
-32.965
-33.437
-33.785
-34.019
-34.147
-34.177
-34.119
-33.979
-33.767
-33.489
-33.154
-32.768
-32.338
-31.871
-31.373
-30.849
-30.305
-29.747
-29.177
-28.603
-28.026
-27.45
-26.88
-26.317
-25.765
-25.225
-24.7
-24.191
-23.7
-23.228
-22.777
-22.348
-21.941
-21.557
-21.197
-20.863
-20.553
-20.269
-20.012
-19.782
-19.578
-19.402
-19.254
-19.135
-19.043
-18.98
-18.946
-18.94
-18.963
-19.014
-19.094
-19.201
-19.336
-19.497
-19.684
-19.896
-20.133
-20.393
-20.676
-20.98
-21.303
-21.645
-22.003
-22.376
-22.763
-23.161
-23.568
-23.982
-24.402
-24.825
-25.248
-25.671
-26.09
-26.503
-26.908
-27.303
-27.686
-28.055
-28.408
-28.743
-29.058
-29.353
-29.626
-29.876
-30.103
-30.306
-30.485
-30.639
-30.77
-30.877
-30.961
-31.023
-31.064
-31.085
-31.089
-31.075
-31.048
-31.006
-30.954
-30.892
-30.822
-30.745
-30.664
-30.58
-30.495
-30.41
-30.327
-30.247
-30.173
-30.104
-30.042
-29.988
-29.943
-29.906
-29.877
-29.856
-29.842
-29.835
-29.833
-29.835
-29.839
-29.843
-29.844
-29.84
-29.828
-29.804
-29.765
-29.709
-29.633
-29.533
-29.407
-29.254
-29.072
-28.86
-28.618
-28.346
-28.041
-27.705
-27.338
-26.939
-26.508
-26.046
-25.554
-25.033
-24.487
-23.918
-23.331
-22.73
-22.119
-21.501
-20.882
-20.266
-19.658
-19.061
-18.48
-17.92
-17.387
-16.892
-16.439
-16.03
-15.665
-15.339
-15.047
-14.782
-14.533
-14.285
-14.024
-13.74
-13.423
-13.072
-12.678
-12.233
-11.729
-11.154
-10.501
-9.774
-8.98
-8.128
-7.239
-6.337
-5.455
-4.643
-3.944
-3.396
-3.039
-2.91
-3.044
-3.485
-4.266
-5.412
-6.95
-8.9
-11.281
-14.113
-17.388
-21.072
-25.135
-29.55
-34.24
-39.07
-43.816
-48.136
-51.729
-54.382
-55.872
-55.934
-54.447
-51.484
-47.382
-42.879
-38.656
-35.079
-32.555
-31.504
-32.091
-34.292
-37.255
-39.04
-38.03
-33.01
-23.869
-11.963
2.395
19.164
39.309
65.714
98.829
138.05
181.586
223.507
258.651
281.764
285.937
267.576
224.62
157.403
71.599
-26.268
-130.633
-237.681
-346.834
-457.149
-563.659
-657.823
-729.099
-768.639
-774.641
-751.195
-705.448
-645.938
-577.457
-502.309
-423.913
-345.616
-273.055
-212.525
-166.179
-133.397
-110.806
-93.685
-79.9
-69.134
-61.638
-57.582
-55.573
-53.441
-49.694
-43.618
-35.358
-25.572
-15.007
-4.571
4.756
12.041
16.844
19.255
19.583
18.323
15.967
12.953
9.827
7.157
5.291
4.395
4.494
5.478
7.256
9.762
12.883
16.495
20.486
24.742
29.176
33.714
38.267
42.748
47.069
51.144
54.904
58.29
61.271
63.847
66.034
67.86
69.363
70.58
71.561
72.364
73.045
73.653
74.237
74.837
75.499
76.271
77.193
78.304
79.63
81.182
82.968
84.992
87.251
89.739
92.445
95.355
98.459
101.753
105.227
108.869
112.661
116.579
120.6
124.702
128.861
133.05
137.244
141.423
145.576
149.7
153.786
157.818
161.776
165.626
169.346
172.925
176.352
179.625
182.739
185.686
188.465
191.089
193.557
195.857
197.963
199.826
201.415
202.711
203.705
204.406
204.807
204.884
204.614
203.966
202.911
201.433
199.504
197.085
194.161
190.728
186.808
182.454
177.7
172.57
167.074
161.206
154.982
148.444
141.641
134.641
127.505
120.284
113.038
105.837
98.734
91.776
84.983
78.352
71.895
65.635
59.609
53.876
48.466
43.382
38.614
34.13
29.904
25.922
22.163
18.596
15.202
11.961
8.871
5.949
3.193
0.596
-1.867
-4.237
-6.537
-8.768
-10.925
-12.981
-14.923
-16.744
-18.434
-19.981
-21.377
-22.62
-23.714
-24.682
-25.533
-26.273
-26.899
-27.398
-27.771
-28.024
-28.17
-28.228
-28.215
-28.143
-28.024
-27.876
-27.709
-27.533
-27.352
-27.162
-26.964
-26.761
-26.557
-26.358
-26.17
-25.993
-25.827
-25.672
-25.529
-25.396
-25.271
-25.153
-25.037
-24.925
-24.815
-24.71
-24.612
-24.519
-24.433
-24.352
-24.278
-24.21
-24.146
-24.087
-24.031
-23.977
-23.926
-23.878
-23.832
-23.789
-23.749
-23.711
-23.677
-23.645
-23.617
-23.592
-23.57
-23.552
-23.537
-23.525
-23.518
-23.514
-23.513
-23.517
-23.524
-23.535
-23.549
-23.566
-23.585
-23.607
-23.63
-23.655
-23.68
-23.706
-23.732
-23.757
-23.783
-23.808
-23.832
-23.856
-23.878
-23.899
-23.919
-23.938
-23.956
-23.972
-23.989
-24.005
-24.021
-24.04
-24.06
-24.083
-24.111
-24.144
-24.184
-24.232
-24.289
-24.357
-24.437
-24.53
-24.637
-24.759
-24.897
-25.052
-25.224
-25.414
-25.621
-25.845
-26.086
-26.344
-26.618
-26.908
-27.212
-27.529
-27.858
-28.197
-28.544
-28.896
-29.251
-29.606
-29.958
-30.304
-30.64
-30.963
-31.268
-31.551
-31.808
-32.034
-32.225
-32.377
-32.485
-32.546
-32.556
-32.513
-32.415
-32.259
-32.046
-31.776
-31.447
-31.061
-30.618
-30.119
-29.566
-28.959
-28.301
-27.593
-26.839
-26.043
-25.211
-24.347
-23.456
-22.546
-21.62
-20.685
-19.747
-18.813
-17.887
-16.977
-16.089
-15.229
-14.41
-13.638
-12.914
-12.24
-11.611
-11.022
-10.468
-9.939
-9.418
-8.893
-8.352
-7.786
-7.191
-6.557
-5.877
-5.142
-4.335
-3.45
-2.492
-1.468
-0.392
0.711
1.823
2.908
3.913
4.794
5.506
6.005
6.26
6.231
5.872
5.15
4.033
2.495
0.523
-1.904
-4.792
-8.135
-11.9
-16.052
-20.558
-25.312
-30.147
-34.811
-38.947
-42.237
-44.485
-45.439
-44.805
-42.578
-38.907
-34.195
-29.316
-24.884
-21.161
-18.645
-17.75
-18.395
-20.436
-22.831
-23.366
-20.648
-13.597
-1.804
13.315
31.036
50.879
72.952
99.512
131.493
169.008
210.69
251.124
284.963
305.542
304.891
278.724
224.779
145.563
49.475
-55.779
-164.006
-273.005
-383.048
-488.676
-588.609
-683.047
-747.568
-759.225
-735.619
-698.825
-646.43
-577.74
-501.301
-422.835
-346.114
-275.796
-215.437
-166.321
-127.566
-96.55
-71.41
-51.302
-36.245
-27.272
-23.705
-23.59
-24.749
-24.632
-22.101
-17.338
-10.691
-2.735
5.764
14.178
21.703
27.405
30.963
32.504
32.3
30.832
28.584
25.959
23.467
21.656
20.802
20.99
22.197
24.261
27.067
30.527
34.5
38.836
43.402
48.084
52.795
57.471
62.027
66.373
70.417
74.072
77.292
80.06
82.38
84.278
85.785
86.939
87.789
88.394
88.81
89.09
89.283
89.43
89.578
89.776
90.072
90.516
91.143
91.973
93.024
94.302
95.81
97.549
99.513
101.687
104.063
106.633
109.393
112.343
115.475
118.779
122.24
125.838
129.552
133.355
137.22
141.116
145.019
148.906
152.765
156.588
160.368
164.1
167.77
171.356
174.839
178.202
181.43
184.514
187.453
190.255
192.932
195.506
197.986
200.371
202.643
204.77
206.709
208.411
209.835
210.954
211.743
212.183
212.255
211.939
211.208
210.03
208.365
206.165
203.398
200.044
196.112
191.632
186.652
181.241
175.458
169.354
162.976
156.363
149.553
142.583
135.494
128.329
121.143
114.001
106.959
100.067
93.354
86.833
80.499
74.336
68.328
62.468
56.75
51.178
45.758
40.5
35.413
30.507
25.786
21.243
16.873
12.669
8.632
4.771
1.099
-2.367
-5.611
-8.618
-11.381
-13.895
-16.161
-18.185
-19.974
-21.54
-22.895
-24.045
-24.999
-25.764
-26.349
-26.764
-27.022
-27.138
-27.123
-26.994
-26.764
-26.445
-26.05
-25.589
-25.072
-24.505
-23.898
-23.258
-22.593
-21.911
-21.219
-20.524
-19.834
-19.155
-18.492
-17.85
-17.234
-16.645
-16.088
-15.562
-15.07
-14.613
-14.19
-13.802
-13.448
-13.127
-12.839
-12.582
-12.355
-12.155
-11.982
-11.833
-11.707
-11.601
-11.514
-11.444
-11.39
-11.35
-11.324
-11.309
-11.305
-11.312
-11.327
-11.352
-11.384
-11.423
-11.469
-11.522
-11.582
-11.649
-11.724
-11.807
-11.899
-12.002
-12.115
-12.241
-12.38
-12.533
-12.703
-12.889
-13.094
-13.319
-13.565
-13.833
-14.124
-14.438
-14.778
-15.143
-15.533
-15.949
-16.391
-16.858
-17.352
-17.87
-18.413
-18.98
-19.569
-20.18
-20.81
-21.459
-22.123
-22.802
-23.491
-24.19
-24.895
-25.605
-26.315
-27.024
-27.727
-28.423
-29.106
-29.775
-30.424
-31.052
-31.653
-32.224
-32.762
-33.264
-33.725
-34.143
-34.514
-34.835
-35.103
-35.315
-35.469
-35.562
-35.592
-35.56
-35.463
-35.301
-35.075
-34.787
-34.438
-34.031
-33.568
-33.051
-32.483
-31.87
-31.213
-30.518
-29.787
-29.026
-28.239
-27.433
-26.614
-25.788
-24.961
-24.14
-23.329
-22.537
-21.771
-21.035
-20.334
-19.671
-19.051
-18.48
-17.964
-17.509
-17.112
-16.771
-16.484
-16.246
-16.052
-15.892
-15.748
-15.603
-15.442
-15.255
-15.038
-14.786
-14.489
-14.139
-13.722
-13.233
-12.68
-12.07
-11.408
-10.703
-9.973
-9.253
-8.595
-8.056
-7.691
-7.54
-7.64
-8.023
-8.716
-9.757
-11.185
-13.031
-15.32
-18.068
-21.278
-24.962
-29.144
-33.751
-38.606
-43.462
-47.975
-51.851
-54.903
-56.912
-57.602
-56.866
-54.838
-51.886
-48.669
-45.8
-43.544
-42.116
-41.926
-43.15
-45.572
-48.672
-51.001
-50.653
-46.536
-37.668
-24.103
-7.594
10.616
29.409
49.564
74.323
105.894
145.483
190.042
231.993
263.546
275.628
261.841
220.883
153.934
67.025
-32.136
-138.212
-246.947
-356.629
-465.131
-566.05
-651.475
-712.976
-744.571
-747.158
-725.024
-683.505
-628.822
-564.696
-494.235
-422.874
-355.513
-295.85
-246.403
-205.817
-171.025
-140.637
-114.1
-92.157
-76.573
-67.303
-62.629
-60.502
-58.582
-55.263
-50.242
-43.709
-35.96
-27.466
-18.853
-10.719
-3.773
1.292
4.322
5.479
5.037
3.45
1.162
-1.443
-3.907
-5.777
-6.809
-6.911
-6.098
-4.489
-2.181
0.743
4.173
7.982
12.053
16.284
20.587
24.892
29.127
33.21
37.064
40.617
43.809
46.607
49.011
51.037
52.712
54.075
55.162
56.02
56.706
57.273
57.772
58.249
58.745
59.302
59.964
60.776
61.778
63
64.456
66.152
68.091
70.274
72.699
75.365
78.258
81.363
84.667
88.156
91.816
95.628
99.565
103.588
107.663
111.765
115.875
119.982
124.069
128.121
132.12
136.052
139.912
143.697
147.398
151.003
154.503
157.899
161.208
164.458
167.672
170.848
173.974
177.026
179.984
182.821
185.509
188.008
190.266
192.246
193.918
195.256
196.232
196.797
196.887
196.422
195.34
193.601
191.187
188.088
184.302
179.85
174.758
169.074
162.853
156.122
148.91
141.251
133.189
124.791
116.149
107.362
98.528
89.743
81.087
72.63
64.435
56.533
48.955
41.718
34.839
28.365
22.339
16.784
11.718
7.142
3.031
-0.642
-3.918
-6.864
-9.531
-11.961
-14.189
-16.225
-18.085
-19.785
-21.343
-22.796
-24.177
-25.504
-26.798
-28.074
-29.333
-30.574
-31.779
-32.908
-33.933
-34.838
-35.612
-36.26
-36.787
-37.189
-37.469
-37.627
-37.664
-37.587
-37.398
-37.101
-36.703
-36.217
-35.663
-35.074
-34.472
-33.876
-33.299
-32.749
-32.234
-31.762
-31.338
-30.961
-30.632
-30.351
-30.121
-29.943
-29.819
-29.746
-29.719
-29.733
-29.781
-29.859
-29.964
-30.09
-30.235
-30.394
-30.566
-30.75
-30.944
-31.145
-31.35
-31.556
-31.759
-31.957
-32.146
-32.323
-32.486
-32.632
-32.759
-32.866
-32.951
-33.014
-33.054
-33.069
-33.061
-33.029
-32.973
-32.895
-32.796
-32.676
-32.537
-32.38
-32.208
-32.022
-31.825
-31.617
-31.402
-31.182
-30.958
-30.733
-30.509
-30.287
-30.071
-29.862
-29.662
-29.473
-29.299
-29.139
-28.997
-28.874
-28.772
-28.69
-28.631
-28.594
-28.58
-28.588
-28.619
-28.671
-28.744
-28.837
-28.948
-29.076
-29.22
-29.378
-29.548
-29.727
-29.914
-30.106
-30.3
-30.493
-30.683
-30.867
-31.041
-31.202
-31.347
-31.472
-31.574
-31.65
-31.694
-31.705
-31.678
-31.61
-31.498
-31.34
-31.133
-30.875
-30.567
-30.207
-29.796
-29.335
-28.824
-28.264
-27.658
-27.007
-26.313
-25.579
-24.806
-23.997
-23.157
-22.289
-21.398
-20.489
-19.568
-18.639
-17.707
-16.777
-15.857
-14.951
-14.062
-13.197
-12.358
-11.553
-10.791
-10.075
-9.406
-8.784
-8.204
-7.663
-7.157
-6.674
-6.2
-5.72
-5.222
-4.694
-4.131
-3.528
-2.875
-2.165
-1.384
-0.528
0.398
1.387
2.428
3.504
4.599
5.679
6.691
7.588
8.317
8.827
9.081
9.033
8.642
7.879
6.707
5.091
3.01
0.437
-2.64
-6.203
-10.249
-14.778
-19.693
-24.836
-29.957
-34.704
-38.786
-41.999
-44.108
-44.832
-44.034
-41.815
-38.554
-34.931
-31.549
-28.676
-26.596
-25.786
-26.505
-28.662
-31.423
-32.968
-31.68
-26.576
-17.587
-5.843
7.928
23.396
41.038
63.645
93.238
130.462
174.781
220.749
261.356
290.127
299.114
283.443
241.427
173.471
85.135
-16.167
-124.01
-234.617
-346.486
-455.442
-561.935
-666.665
-745.861
-774.925
-767.736
-744.362
-702.647
-643.449
-574.779
-499.854
-421.318
-342.745
-269.451
-207.415
-158.775
-123.277
-98.282
-79.599
-65.258
-54.728
-47.885
-44.692
-43.675
-42.648
-40.149
-35.399
-28.445
-19.887
-10.421
-0.937
7.554
14.093
18.216
20.008
19.793
18.061
15.3
11.961
8.599
5.815
3.982
3.24
3.583
4.88
7.014
9.911
13.453
17.487
21.879
26.5
31.247
36.047
40.814
45.449
49.855
53.94
57.623
60.87
63.672
66.037
67.992
69.568
70.804
71.75
72.468
73.016
73.449
73.817
74.165
74.543
75.003
75.593
76.359
77.328
78.517
79.937
81.591
83.483
85.609
87.959
90.518
93.279
96.235
99.385
102.721
106.227
109.88
113.66
117.547
121.521
125.561
129.639
133.732
137.826
141.916
145.998
150.062
154.088
158.047
161.91
165.656
169.278
172.767
176.11
179.296
182.315
185.173
187.882
190.44
192.821
194.979
196.87
198.466
199.752
200.723
201.372
201.681
201.631
201.207
200.404
199.214
197.623
195.6
193.108
190.139
186.715
182.888
178.711
174.216
169.432
164.378
159.087
153.595
147.935
142.132
136.205
130.18
124.095
118.006
111.969
106.022
100.176
94.421
88.752
83.175
77.701
72.338
67.088
61.954
56.944
52.079
47.377
42.851
38.503
34.324
30.306
26.449
22.762
19.26
15.956
12.853
9.958
7.273
4.806
2.56
0.529
-1.296
-2.929
-4.377
-5.648
-6.746
-7.677
-8.451
-9.077
-9.566
-9.929
-10.177
-10.319
-10.368
-10.337
-10.236
-10.073
-9.858
-9.595
-9.294
-8.961
-8.604
-8.229
-7.841
-7.448
-7.055
-6.667
-6.289
-5.925
-5.578
-5.249
-4.942
-4.658
-4.397
-4.16
-3.946
-3.757
-3.591
-3.447
-3.325
-3.223
-3.139
-3.072
-3.02
-2.982
-2.955
-2.938
-2.929
-2.926
-2.928
-2.934
-2.942
-2.95
-2.959
-2.967
-2.973
-2.977
-2.977
-2.973
-2.966
-2.955
-2.939
-2.92
-2.898
-2.873
-2.846
-2.82
-2.793
-2.769
-2.747
-2.73
-2.719
-2.715
-2.719
-2.734
-2.761
-2.802
-2.857
-2.929
-3.019
-3.128
-3.257
-3.409
-3.582
-3.78
-4.002
-4.249
-4.523
-4.824
-5.152
-5.508
-5.892
-6.303
-6.742
-7.207
-7.697
-8.212
-8.75
-9.309
-9.889
-10.486
-11.099
-11.726
-12.364
-13.011
-13.663
-14.319
-14.975
-15.628
-16.273
-16.909
-17.532
-18.138
-18.723
-19.285
-19.819
-20.323
-20.791
-21.221
-21.608
-21.95
-22.243
-22.484
-22.671
-22.802
-22.876
-22.891
-22.849
-22.749
-22.593
-22.382
-22.117
-21.801
-21.436
-21.026
-20.572
-20.078
-19.548
-18.985
-18.396
-17.787
-17.162
-16.527
-15.888
-15.251
-14.62
-14.004
-13.407
-12.833
-12.287
-11.772
-11.297
-10.868
-10.489
-10.161
-9.88
-9.643
-9.444
-9.278
-9.133
-8.992
-8.842
-8.669
-8.459
-8.209
-7.91
-7.552
-7.126
-6.616
-6.015
-5.328
-4.561
-3.721
-2.825
-1.885
-0.933
-0.021
0.808
1.509
2.03
2.342
2.402
2.172
1.628
0.732
-0.552
-2.245
-4.379
-6.97
-10.004
-13.485
-17.418
-21.714
-26.221
-30.699
-34.793
-38.22
-40.787
-42.269
-42.396
-41.039
-38.308
-34.591
-30.595
-26.939
-23.886
-21.713
-20.88
-21.63
-23.86
-26.7
-28.276
-26.929
-21.672
-12.42
-0.255
14.14
30.516
49.296
72.993
103.441
141.178
185.758
232.229
273.911
304.451
315.866
302.72
262.83
196.165
107.881
5.685
-103.903
-216.275
-329.98
-444.377
-555.148
-653.996
-730.408
-775.174
-785.91
-766.259
-723.276
-665.604
-598.381
-524.829
-448.726
-373.323
-303.576
-243.766
-195.137
-157.123
-127.029
-102.665
-83.246
-68.775
-60.112
-56.463
-55.849
-56.174
-55.08
-51.608
-45.999
-38.59
-30.004
-21.06
-12.418
-4.884
0.693
4.077
5.428
5.053
3.449
1.101
-1.574
-4.08
-5.913
-6.802
-6.656
-5.5
-3.474
-0.692
2.753
6.735
11.112
15.758
20.563
25.43
30.287
35.057
39.652
43.99
47.995
51.603
54.782
57.53
59.864
61.811
63.409
64.698
65.727
66.556
67.239
67.829
68.371
68.908
69.481
70.135
70.911
71.846
72.967
74.286
75.811
77.545
79.485
81.63
83.969
86.49
89.181
92.031
95.032
98.173
101.445
104.831
108.318
111.889
115.53
119.224
122.956
126.708
130.463
134.204
137.914
141.575
145.17
148.677
152.079
155.354
158.483
161.446
164.226
166.802
169.159
171.28
173.15
174.755
176.084
177.124
177.867
178.302
178.423
178.225
177.702
176.852
175.673
174.166
172.332
170.173
167.696
164.906
161.811
158.419
154.743
150.792
146.58
142.122
137.433
132.528
127.425
122.142
116.698
111.111
105.401
99.588
93.693
87.735
81.734
75.711
69.685
63.675
57.701
51.78
45.932
40.172
34.517
28.984
23.586
18.338
13.253
8.342
3.616
-0.916
-5.245
-9.365
-13.269
-16.953
-20.414
-23.648
-26.656
-29.436
-31.991
-34.322
-36.432
-38.327
-40.01
-41.488
-42.767
-43.854
-44.759
-45.488
-46.051
-46.457
-46.715
-46.836
-46.83
-46.706
-46.474
-46.145
-45.729
-45.235
-44.672
-44.051
-43.378
-42.665
-41.917
-41.143
-40.35
-39.545
-38.734
-37.923
-37.118
-36.322
-35.541
-34.778
-34.037
-33.321
-32.631
-31.971
-31.342
-30.744
-30.18
-29.649
-29.152
-28.689
-28.26
-27.863
-27.499
-27.165
-26.862
-26.588
-26.34
-26.119
-25.923
-25.749
-25.598
-25.467
-25.355
-25.26
-25.182
-25.119
-25.07
-25.033
-25.007
-24.991
-24.984
-24.986
-24.994
-25.009
-25.028
-25.053
-25.081
-25.112
-25.145
-25.18
-25.216
-25.253
-25.29
-25.328
-25.365
-25.402
-25.439
-25.476
-25.513
-25.551
-25.589
-25.628
-25.667
-25.708
-25.75
-25.794
-25.84
-25.889
-25.942
-25.998
-26.059
-26.124
-26.194
-26.27
-26.351
-26.437
-26.529
-26.625
-26.728
-26.834
-26.946
-27.062
-27.182
-27.305
-27.43
-27.557
-27.685
-27.811
-27.936
-28.056
-28.171
-28.279
-28.377
-28.464
-28.537
-28.594
-28.632
-28.65
-28.643
-28.609
-28.545
-28.449
-28.317
-28.147
-27.938
-27.687
-27.393
-27.056
-26.674
-26.25
-25.782
-25.273
-24.722
-24.131
-23.503
-22.838
-22.14
-21.409
-20.649
-19.863
-19.056
-18.232
-17.397
-16.555
-15.711
-14.87
-14.038
-13.22
-12.422
-11.647
-10.902
-10.189
-9.516
-8.891
-8.317
-7.796
-7.325
-6.901
-6.518
-6.171
-5.85
-5.539
-5.227
-4.901
-4.548
-4.166
-3.748
-3.286
-2.774
-2.194
-1.54
-0.818
-0.032
0.805
1.673
2.56
3.438
4.256
4.973
5.544
5.916
6.065
5.957
5.555
4.838
3.764
2.29
0.397
-1.946
-4.755
-8.009
-11.722
-15.916
-20.501
-25.325
-30.153
-34.629
-38.469
-41.492
-43.463
-44.099
-43.27
-41.085
-37.927
-34.492
-31.453
-29.137
-27.776
-27.801
-29.42
-32.384
-36.117
-39.071
-39.176
-35.293
-26.479
-12.683
4.423
23.804
44.699
67.731
95.706
130.227
171.509
216.213
257.654
289.473
304.412
296.836
264.049
204.759
122.619
24.831
-81.999
-192.076
-303.632
-416.072
-522.901
-622.267
-714.284
-775.502
-783.945
-758.568
-722.444
-672.384
-606.859
-532.459
-453.003
-372.548
-296.465
-230.984
-179.935
-142.847
-117.02
-98.199
-83.295
-71.543
-63.236
-58.719
-57.084
-56.436
-54.791
-50.838
-44.521
-36.37
-27.021
-17.38
-8.216
-0.255
5.714
9.457
11.161
11.144
9.899
7.912
5.597
3.432
1.898
1.253
1.585
2.866
4.96
7.756
11.162
15.052
19.29
23.754
28.337
32.951
37.525
41.986
46.25
50.24
53.884
57.123
59.927
62.295
64.243
65.802
67.01
67.911
68.557
69.008
69.322
69.554
69.754
69.965
70.233
70.603
71.119
71.821
72.738
73.885
75.273
76.907
78.788
80.915
83.281
85.874
88.683
91.7
94.913
98.315
101.894
105.634
109.519
113.533
117.658
121.877
126.17
130.519
134.903
139.302
143.694
148.059
152.375
156.619
160.766
164.794
168.677
172.393
175.92
179.235
182.317
185.147
187.706
189.978
191.948
193.6
194.923
195.906
196.539
196.816
196.73
196.277
195.456
194.266
192.707
190.785
188.503
185.87
182.893
179.583
175.952
172.014
167.784
163.278
158.514
153.511
148.289
142.867
137.268
131.514
125.626
119.629
113.544
107.395
101.204
94.993
88.786
82.603
76.465
70.393
64.407
58.524
52.764
47.143
41.676
36.379
31.264
26.344
21.629
17.129
12.851
8.803
4.989
1.413
-1.922
-5.016
-7.87
-10.484
-12.862
-15.007
-16.926
-18.623
-20.107
-21.385
-22.466
-23.359
-24.075
-24.623
-25.015
-25.262
-25.376
-25.367
-25.247
-25.028
-24.722
-24.339
-23.891
-23.388
-22.841
-22.26
-21.653
-21.03
-20.398
-19.766
-19.141
-18.528
-17.934
-17.363
-16.82
-16.308
-15.829
-15.388
-14.984
-14.62
-14.295
-14.01
-13.765
-13.557
-13.386
-13.25
-13.147
-13.074
-13.028
-13.007
-13.007
-13.026
-13.06
-13.105
-13.158
-13.216
-13.276
-13.334
-13.388
-13.435
-13.472
-13.497
-13.507
-13.502
-13.48
-13.439
-13.378
-13.297
-13.196
-13.074
-12.931
-12.769
-12.588
-12.389
-12.173
-11.942
-11.698
-11.442
-11.178
-10.907
-10.632
-10.356
-10.082
-9.814
-9.554
-9.305
-9.071
-8.854
-8.659
-8.487
-8.343
-8.228
-8.146
-8.099
-8.089
-8.118
-8.187
-8.299
-8.453
-8.651
-8.892
-9.176
-9.503
-9.871
-10.28
-10.728
-11.213
-11.733
-12.285
-12.867
-13.474
-14.103
-14.75
-15.411
-16.081
-16.754
-17.426
-18.091
-18.745
-19.38
-19.992
-20.574
-21.121
-21.628
-22.087
-22.494
-22.844
-23.133
-23.356
-23.509
-23.591
-23.599
-23.532
-23.389
-23.172
-22.88
-22.515
-22.078
-21.571
-20.998
-20.361
-19.663
-18.909
-18.104
-17.253
-16.365
-15.445
-14.501
-13.541
-12.57
-11.599
-10.634
-9.685
-8.759
-7.861
-7
-6.184
-5.423
-4.727
-4.097
-3.532
-3.031
-2.591
-2.207
-1.872
-1.572
-1.292
-1.019
-0.745
-0.462
-0.166
0.151
0.503
0.905
1.364
1.881
2.444
3.041
3.662
4.291
4.895
5.424
5.829
6.058
6.068
5.828
5.296
4.44
3.226
1.615
-0.427
-2.924
-5.891
-9.336
-13.237
-17.584
-22.375
-27.489
-32.738
-37.866
-42.506
-46.361
-49.266
-50.969
-51.165
-49.853
-47.166
-43.474
-39.624
-36.155
-33.242
-31.334
-30.828
-31.6
-33.502
-35.575
-35.606
-32.14
-24.192
-11.328
4.911
22.813
41.402
60.912
83.893
113.695
152.297
198.091
245.318
285.553
309.166
308.372
279.132
221.587
140.99
45.488
-57.688
-163.87
-271.689
-380.864
-487.232
-582.547
-656.856
-701.323
-713.67
-697.541
-658.725
-604.585
-540.7
-471.002
-401.047
-335.496
-277.49
-229.071
-188.72
-153.702
-122.862
-95.837
-73.593
-57.792
-48.382
-43.78
-41.909
-40.366
-37.492
-32.885
-26.695
-19.262
-11.023
-2.537
5.613
12.71
17.981
21.181
22.438
22.011
20.341
17.861
14.944
12.057
9.692
8.134
7.498
7.79
8.896
10.719
13.194
16.213
19.652
23.4
27.349
31.413
35.528
39.626
43.625
47.446
51.01
54.247
57.124
59.636
61.794
63.626
65.163
66.442
67.509
68.42
69.226
69.977
70.715
71.476
72.301
73.233
74.316
75.592
77.088
78.818
80.793
83.014
85.482
88.191
91.13
94.282
97.634
101.176
104.903
108.807
112.876
117.088
121.421
125.846
130.335
134.863
139.397
143.911
148.381
152.788
157.127
161.392
165.571
169.646
173.589
177.374
180.985
184.411
187.647
190.695
193.553
196.221
198.715
201.044
203.202
205.178
206.933
208.419
209.605
210.472
211.017
211.233
211.1
210.584
209.659
208.295
206.471
204.168
201.348
197.977
194.045
189.556
184.554
179.1
173.236
166.982
160.357
153.381
146.106
138.608
130.947
123.177
115.347
107.503
99.715
92.056
84.578
77.316
70.273
63.44
56.831
50.481
44.427
38.69
33.26
28.102
23.192
18.525
14.099
9.906
5.923
2.12
-1.519
-4.992
-8.289
-11.397
-14.324
-17.094
-19.734
-22.256
-24.65
-26.889
-28.958
-30.86
-32.596
-34.165
-35.562
-36.778
-37.815
-38.692
-39.425
-40.029
-40.507
-40.855
-41.069
-41.156
-41.132
-41.017
-40.829
-40.579
-40.277
-39.937
-39.574
-39.2
-38.823
-38.44
-38.053
-37.666
-37.282
-36.911
-36.558
-36.224
-35.912
-35.62
-35.349
-35.1
-34.87
-34.659
-34.461
-34.276
-34.101
-33.939
-33.789
-33.65
-33.522
-33.401
-33.289
-33.183
-33.083
-32.986
-32.89
-32.795
-32.7
-32.604
-32.507
-32.409
-32.31
-32.211
-32.111
-32.012
-31.915
-31.819
-31.727
-31.639
-31.557
-31.483
-31.419
-31.366
-31.327
-31.303
-31.298
-31.312
-31.348
-31.406
-31.489
-31.597
-31.731
-31.891
-32.079
-32.292
-32.533
-32.8
-33.093
-33.412
-33.754
-34.118
-34.503
-34.906
-35.324
-35.755
-36.194
-36.639
-37.085
-37.53
-37.967
-38.394
-38.805
-39.195
-39.559
-39.892
-40.188
-40.443
-40.65
-40.806
-40.905
-40.945
-40.921
-40.831
-40.673
-40.446
-40.149
-39.783
-39.347
-38.842
-38.268
-37.627
-36.922
-36.153
-35.324
-34.44
-33.504
-32.525
-31.507
-30.457
-29.382
-28.289
-27.185
-26.079
-24.976
-23.884
-22.811
-21.763
-20.752
-19.789
-18.883
-18.036
-17.25
-16.524
-15.855
-15.24
-14.669
-14.129
-13.609
-13.101
-12.597
-12.095
-11.589
-11.068
-10.525
-9.946
-9.324
-8.662
-7.965
-7.243
-6.512
-5.791
-5.11
-4.513
-4.042
-3.729
-3.612
-3.724
-4.098
-4.776
-5.791
-7.166
-8.925
-11.088
-13.673
-16.695
-20.157
-24.03
-28.293
-32.936
-37.868
-42.935
-47.91
-52.442
-56.238
-59.124
-60.847
-61.108
-59.883
-57.304
-53.767
-50.105
-46.869
-44.245
-42.661
-42.518
-43.738
-46.165
-48.774
-49.381
-46.624
-39.631
-27.984
-12.943
4.45
23.757
44.683
68.904
98.38
133.953
175.382
218.595
257.239
283.954
290.352
271.063
224.434
153.367
65.428
-31.078
-130.036
-229.642
-330.786
-433.651
-534.297
-623.742
-691.734
-730.084
-736.813
-715.767
-673.175
-616.47
-550.565
-478.984
-406.19
-335.994
-273
-220.528
-178.633
-145.893
-119.456
-97.37
-79.535
-66.481
-58.783
-55.454
-54.299
-53.051
-50.08
-45.012
-38.173
-30.012
-21.14
-12.279
-4.263
1.956
5.907
7.663
7.494
5.855
3.207
-0.033
-3.34
-6.131
-8.039
-8.92
-8.762
-7.686
-5.799
-3.167
0.094
3.841
7.947
12.292
16.78
21.34
25.885
30.317
34.542
38.466
42.015
45.149
47.854
50.138
52.028
53.556
54.76
55.69
56.404
56.957
57.404
57.794
58.171
58.584
59.081
59.708
60.51
61.514
62.741
64.198
65.892
67.822
69.988
72.38
74.988
77.798
80.802
83.99
87.354
90.881
94.557
98.365
102.288
106.31
110.415
114.585
118.802
123.046
127.299
131.54
135.753
139.915
144.004
147.999
151.877
155.615
159.192
162.586
165.776
168.742
171.465
173.928
176.116
178.013
179.606
180.883
181.834
182.451
182.725
182.653
182.229
181.453
180.323
178.842
177.013
174.84
172.331
169.494
166.34
162.878
159.124
155.091
150.794
146.252
141.48
136.5
131.33
125.99
120.503
114.889
109.17
103.369
97.507
91.605
85.686
79.771
73.879
68.031
62.246
56.544
50.941
45.454
40.1
34.892
29.845
24.971
20.281
15.785
11.491
7.407
3.539
-0.109
-3.534
-6.733
-9.705
-12.452
-14.975
-17.276
-19.36
-21.232
-22.897
-24.362
-25.635
-26.724
-27.638
-28.385
-28.977
-29.423
-29.733
-29.918
-29.988
-29.953
-29.825
-29.614
-29.329
-28.98
-28.577
-28.129
-27.643
-27.129
-26.594
-26.044
-25.487
-24.929
-24.373
-23.826
-23.292
-22.773
-22.273
-21.794
-21.339
-20.908
-20.503
-20.123
-19.769
-19.441
-19.137
-18.856
-18.598
-18.36
-18.14
-17.938
-17.749
-17.574
-17.408
-17.25
-17.099
-16.952
-16.806
-16.662
-16.516
-16.367
-16.214
-16.057
-15.893
-15.723
-15.546
-15.362
-15.171
-14.972
-14.768
-14.557
-14.34
-14.119
-13.894
-13.666
-13.436
-13.207
-12.979
-12.754
-12.534
-12.32
-12.114
-11.919
-11.735
-11.565
-11.411
-11.274
-11.155
-11.057
-10.98
-10.925
-10.895
-10.889
-10.909
-10.954
-11.025
-11.121
-11.242
-11.387
-11.556
-11.746
-11.958
-12.189
-12.439
-12.705
-12.985
-13.279
-13.583
-13.895
-14.212
-14.533
-14.853
-15.17
-15.482
-15.784
-16.074
-16.349
-16.605
-16.839
-17.048
-17.228
-17.377
-17.492
-17.57
-17.608
-17.605
-17.56
-17.471
-17.34
-17.165
-16.95
-16.695
-16.402
-16.073
-15.711
-15.318
-14.898
-14.452
-13.984
-13.497
-12.995
-12.483
-11.968
-11.453
-10.945
-10.449
-9.969
-9.511
-9.081
-8.684
-8.324
-8.003
-7.727
-7.501
-7.331
-7.223
-7.174
-7.18
-7.238
-7.339
-7.479
-7.644
-7.816
-7.98
-8.12
-8.224
-8.283
-8.29
-8.231
-8.095
-7.865
-7.535
-7.106
-6.586
-5.984
-5.311
-4.583
-3.83
-3.103
-2.45
-1.917
-1.553
-1.395
-1.488
-1.876
-2.593
-3.676
-5.16
-7.067
-9.417
-12.229
-15.489
-19.196
-23.362
-27.887
-32.609
-37.292
-41.574
-45.151
-47.833
-49.347
-49.374
-47.861
-44.913
-40.909
-36.679
-32.78
-29.42
-27.038
-26.049
-26.445
-28.14
-30.091
-30.106
-26.867
-19.463
-7.801
6.614
23.323
42.28
64.141
91.416
124.666
163.363
205.711
246.089
279.749
301.765
305.382
286.945
243.891
175.767
88.136
-12.76
-121.826
-234.475
-349.289
-463.623
-570.06
-659.477
-722.14
-751.529
-748.841
-719.482
-670.602
-609.716
-540.51
-465.913
-390.117
-316.901
-251.782
-198.751
-158.17
-128.533
-106.137
-87.917
-72.864
-61.204
-53.653
-49.646
-47.446
-44.967
-40.617
-34.17
-26.103
-16.939
-7.42
1.79
9.99
16.249
20.161
21.839
21.559
19.814
17.094
13.8
10.445
7.602
5.626
4.666
4.747
5.74
7.538
10.068
13.21
16.827
20.795
24.995
29.334
33.739
38.122
42.387
46.441
50.191
53.56
56.506
59.015
61.097
62.781
64.1
65.099
65.828
66.346
66.712
66.982
67.206
67.43
67.703
68.072
68.587
69.291
70.213
71.374
72.781
74.441
76.352
78.513
80.914
83.544
86.388
89.437
92.681
96.11
99.712
103.47
107.369
111.39
115.517
119.731
124.014
128.346
132.708
137.08
141.441
145.771
150.049
154.253
158.357
162.34
166.178
169.849
173.33
176.6
179.638
182.426
184.945
187.18
189.115
190.736
192.033
192.993
193.609
193.872
193.778
193.321
192.5
191.315
189.766
187.856
185.591
182.977
180.022
176.737
173.133
169.223
165.022
160.546
155.812
150.838
145.645
140.251
134.68
128.951
123.088
117.113
111.049
104.919
98.744
92.549
86.354
80.181
74.052
67.987
62.006
56.127
50.369
44.749
39.283
33.987
28.873
23.954
19.242
14.746
10.474
6.435
2.632
-0.93
-4.247
-7.32
-10.147
-12.73
-15.072
-17.178
-19.051
-20.698
-22.127
-23.346
-24.363
-25.188
-25.832
-26.304
-26.617
-26.782
-26.811
-26.715
-26.508
-26.2
-25.804
-25.332
-24.795
-24.204
-23.571
-22.905
-22.218
-21.517
-20.812
-20.111
-19.422
-18.75
-18.104
-17.487
-16.905
-16.361
-15.859
-15.402
-14.992
-14.63
-14.316
-14.052
-13.837
-13.669
-13.548
-13.472
-13.439
-13.447
-13.493
-13.575
-13.688
-13.83
-13.998
-14.189
-14.398
-14.623
-14.861
-15.108
-15.361
-15.617
-15.874
-16.129
-16.38
-16.624
-16.86
-17.087
-17.302
-17.505
-17.694
-17.869
-18.03
-18.175
-18.305
-18.421
-18.521
-18.606
-18.678
-18.738
-18.785
-18.821
-18.849
-18.868
-18.881
-18.89
-18.895
-18.9
-18.906
-18.916
-18.93
-18.952
-18.983
-19.025
-19.08
-19.149
-19.234
-19.336
-19.456
-19.594
-19.751
-19.928
-20.125
-20.341
-20.578
-20.835
-21.111
-21.406
-21.719
-22.05
-22.396
-22.757
-23.13
-23.515
-23.907
-24.307
-24.71
-25.114
-25.515
-25.911
-26.297
-26.669
-27.025
-27.358
-27.666
-27.944
-28.188
-28.396
-28.564
-28.69
-28.771
-28.808
-28.798
-28.742
-28.638
-28.486
-28.286
-28.04
-27.746
-27.405
-27.018
-26.587
-26.116
-25.608
-25.067
-24.498
-23.904
-23.292
-22.665
-22.029
-21.388
-20.745
-20.106
-19.478
-18.87
-18.29
-17.747
-17.241
-16.774
-16.345
-15.945
-15.57
-15.208
-14.841
-14.459
-14.052
-13.612
-13.139
-12.624
-12.058
-11.429
-10.727
-9.942
-9.076
-8.135
-7.123
-6.066
-4.991
-3.931
-2.938
-2.054
-1.313
-0.751
-0.401
-0.298
-0.483
-1
-1.882
-3.156
-4.842
-6.958
-9.527
-12.546
-15.998
-19.839
-24.018
-28.522
-33.268
-38.1
-42.786
-46.977
-50.367
-52.768
-53.93
-53.542
-51.571
-48.149
-43.66
-38.967
-34.672
-31.009
-28.473
-27.522
-28.132
-30.219
-32.719
-33.329
-30.66
-23.767
-12.485
1.547
17.692
35.825
56.574
82.72
115.3
154.135
197.294
238.487
272.091
292.203
291.749
267.637
217.821
142.788
49.292
-56.14
-167.732
-281.099
-395.218
-504.895
-608.466
-706.793
-777.216
-797.573
-784.798
-760.458
-722.413
-669.086
-606.071
-535.059
-457.26
-377.797
-303.102
-238.632
-187.353
-147.995
-117.17
-92.532
-72.579
-57.508
-48.491
-44.626
-44.008
-44.556
-43.85
-40.936
-36.027
-29.364
-21.499
-13.256
-5.3
1.575
6.528
9.359
10.271
9.557
7.701
5.202
2.479
0.042
-1.593
-2.192
-1.706
-0.182
2.213
5.356
9.152
13.454
18.104
22.967
27.918
32.865
37.739
42.453
46.915
51.037
54.737
57.973
60.742
63.053
64.941
66.442
67.596
68.46
69.096
69.563
69.92
70.219
70.504
70.825
71.231
71.772
72.497
73.441
74.622
76.054
77.742
79.686
81.887
84.336
87.017
89.919
93.032
96.348
99.866
103.578
107.466
111.511
115.69
119.975
124.342
128.763
133.207
137.646
142.061
146.434
150.76
155.032
159.235
163.348
167.343
171.192
174.88
178.392
181.719
184.861
187.821
190.603
193.222
195.685
197.977
200.077
201.949
203.542
204.824
205.771
206.37
206.617
206.501
206.002
205.1
203.764
201.964
199.668
196.839
193.45
189.507
185.026
180.043
174.621
168.814
162.66
156.194
149.437
142.406
135.144
127.706
120.149
112.535
104.927
97.387
89.977
82.739
75.701
68.881
62.268
55.855
49.652
43.676
37.952
32.521
27.391
22.543
17.972
13.662
9.6
5.779
2.179
-1.215
-4.408
-7.398
-10.172
-12.713
-15.022
-17.112
-19.001
-20.718
-22.272
-23.649
-24.848
-25.871
-26.719
-27.401
-27.918
-28.265
-28.451
-28.491
-28.402
-28.207
-27.918
-27.537
-27.071
-26.521
-25.897
-25.22
-24.506
-23.765
-23.01
-22.251
-21.499
-20.771
-20.074
-19.412
-18.785
-18.197
-17.649
-17.147
-16.697
-16.299
-15.955
-15.662
-15.42
-15.228
-15.083
-14.984
-14.925
-14.902
-14.913
-14.955
-15.027
-15.125
-15.246
-15.387
-15.544
-15.714
-15.893
-16.079
-16.266
-16.452
-16.633
-16.807
-16.972
-17.125
-17.264
-17.388
-17.494
-17.581
-17.65
-17.698
-17.727
-17.735
-17.724
-17.693
-17.645
-17.58
-17.499
-17.404
-17.295
-17.175
-17.046
-16.909
-16.766
-16.619
-16.471
-16.324
-16.179
-16.039
-15.907
-15.784
-15.674
-15.577
-15.498
-15.438
-15.399
-15.384
-15.394
-15.432
-15.498
-15.593
-15.719
-15.876
-16.064
-16.284
-16.534
-16.815
-17.124
-17.462
-17.827
-18.217
-18.632
-19.068
-19.525
-19.998
-20.487
-20.988
-21.497
-22.012
-22.529
-23.045
-23.555
-24.056
-24.544
-25.014
-25.462
-25.882
-26.27
-26.622
-26.932
-27.195
-27.408
-27.567
-27.669
-27.71
-27.689
-27.605
-27.457
-27.245
-26.97
-26.631
-26.23
-25.767
-25.246
-24.667
-24.032
-23.346
-22.611
-21.832
-21.017
-20.172
-19.301
-18.411
-17.51
-16.602
-15.696
-14.799
-13.914
-13.049
-12.212
-11.411
-10.658
-9.958
-9.315
-8.729
-8.197
-7.715
-7.274
-6.866
-6.476
-6.092
-5.705
-5.308
-4.898
-4.471
-4.016
-3.526
-2.99
-2.397
-1.75
-1.054
-0.314
0.449
1.213
1.95
2.619
3.182
3.611
3.875
3.938
3.779
3.367
2.671
1.676
0.35
-1.336
-3.399
-5.87
-8.746
-11.996
-15.614
-19.601
-23.9
-28.398
-32.884
-37.031
-40.579
-43.349
-45.128
-45.647
-44.734
-42.444
-39.135
-35.495
-32.195
-29.56
-27.863
-27.564
-28.944
-31.945
-35.784
-38.621
-38.652
-34.806
-26.95
-16.02
-2.703
12.91
31.492
55.321
86.093
124.182
168.854
215.585
258.501
292.289
310.043
306.484
278.245
222.747
142.885
45.545
-62.287
-173.747
-286.77
-401.32
-511.475
-616.038
-714.296
-781.527
-796.417
-777.834
-750.028
-712.105
-660.689
-600.319
-531.768
-455.003
-375.861
-301.267
-236.636
-185.243
-145.558
-114.199
-89.131
-68.898
-53.683
-44.494
-40.25
-39.048
-38.919
-37.597
-34.211
-28.976
-22.115
-14.167
-5.956
1.857
8.502
13.176
15.706
16.306
15.278
13.107
10.298
7.274
4.545
2.623
1.74
1.948
3.202
5.34
8.24
11.81
15.904
20.366
25.059
29.859
34.67
39.424
44.03
48.395
52.428
56.043
59.198
61.887
64.119
65.927
67.344
68.411
69.184
69.722
70.087
70.333
70.514
70.672
70.86
71.129
71.527
72.105
72.897
73.923
75.198
76.727
78.508
80.541
82.816
85.324
88.057
91.009
94.167
97.521
101.056
104.754
108.594
112.549
116.581
120.66
124.757
128.855
132.941
137
141.015
144.971
148.852
152.65
156.362
159.981
163.495
166.894
170.181
173.37
176.491
179.566
182.594
185.561
188.446
191.23
193.895
196.419
198.764
200.877
202.715
204.244
205.436
206.258
206.658
206.56
205.886
204.579
202.614
199.989
196.701
192.747
188.14
182.899
177.072
170.724
163.897
156.625
148.951
140.929
132.652
124.234
115.785
107.387
99.099
90.967
83.042
75.377
68.007
60.956
54.231
47.831
41.79
36.142
30.898
26.055
21.573
17.389
13.458
9.755
6.256
2.949
-0.186
-3.172
-6.013
-8.708
-11.255
-13.66
-15.952
-18.164
-20.304
-22.373
-24.347
-26.191
-27.887
-29.426
-30.796
-31.991
-33.008
-33.842
-34.507
-35.019
-35.388
-35.618
-35.702
-35.634
-35.419
-35.069
-34.602
-34.043
-33.411
-32.719
-31.989
-31.237
-30.473
-29.709
-28.947
-28.186
-27.432
-26.689
-25.965
-25.267
-24.6
-23.966
-23.366
-22.801
-22.269
-21.771
-21.304
-20.864
-20.451
-20.064
-19.703
-19.371
-19.067
-18.791
-18.543
-18.322
-18.127
-17.956
-17.807
-17.679
-17.569
-17.476
-17.399
-17.337
-17.288
-17.252
-17.228
-17.214
-17.21
-17.214
-17.227
-17.248
-17.276
-17.311
-17.352
-17.4
-17.455
-17.517
-17.587
-17.664
-17.749
-17.843
-17.945
-18.056
-18.176
-18.306
-18.445
-18.593
-18.751
-18.918
-19.096
-19.284
-19.483
-19.693
-19.914
-20.147
-20.39
-20.644
-20.91
-21.186
-21.472
-21.768
-22.074
-22.389
-22.712
-23.044
-23.384
-23.73
-24.081
-24.437
-24.796
-25.157
-25.517
-25.875
-26.23
-26.579
-26.921
-27.254
-27.576
-27.886
-28.18
-28.458
-28.716
-28.954
-29.167
-29.355
-29.513
-29.641
-29.736
-29.794
-29.815
-29.796
-29.734
-29.626
-29.472
-29.268
-29.012
-28.703
-28.339
-27.92
-27.445
-26.914
-26.328
-25.689
-24.998
-24.259
-23.474
-22.646
-21.777
-20.873
-19.935
-18.969
-17.977
-16.964
-15.935
-14.895
-13.853
-12.813
-11.783
-10.767
-9.772
-8.805
-7.871
-6.977
-6.127
-5.325
-4.575
-3.884
-3.261
-2.709
-2.228
-1.816
-1.467
-1.174
-0.932
-0.729
-0.546
-0.37
-0.184
0.022
0.255
0.52
0.829
1.191
1.623
2.131
2.711
3.356
4.057
4.797
5.561
6.316
7.012
7.602
8.04
8.278
8.284
8.016
7.435
6.513
5.21
3.495
1.345
-1.262
-4.337
-7.859
-11.817
-16.213
-20.956
-25.903
-30.824
-35.367
-39.235
-42.222
-44.094
-44.584
-43.563
-41.088
-37.485
-33.49
-29.755
-26.627
-24.489
-23.736
-24.558
-26.99
-30.17
-32.081
-31.047
-25.787
-16.339
-4.495
9.172
24.568
42.977
68.112
101
141.346
187.27
232.287
270.63
295.839
300.025
278.784
229.756
155.219
62.622
-39.942
-145.717
-252.773
-361.751
-471.76
-578.012
-669.851
-735.82
-768.998
-769.597
-744.606
-703.386
-652.817
-594.893
-529.447
-456.566
-379.105
-303.834
-236.886
-182.223
-140.546
-108.597
-83.679
-64.1
-49.172
-39.91
-35.68
-34.606
-34.742
-33.683
-30.35
-24.915
-17.633
-9.048
0.049
8.973
16.87
22.831
26.567
28.217
28.09
26.672
24.432
21.779
19.2
17.199
16.051
15.829
16.466
17.804
19.719
22.14
24.991
28.163
31.547
35.048
38.572
42.059
45.462
48.712
51.746
54.508
56.955
59.093
60.984
62.676
64.206
65.594
66.828
67.925
68.928
69.877
70.814
71.774
72.777
73.857
75.062
76.426
77.975
79.707
81.587
83.597
85.739
88.025
90.485
93.137
95.98
99.021
102.268
105.723
109.381
113.225
117.226
121.362
125.617
129.978
134.44
138.994
143.627
148.32
153.049
157.783
162.49
167.134
171.676
176.087
180.354
184.461
188.392
192.135
195.678
199.015
202.145
205.049
207.686
210.021
212.02
213.663
214.944
215.857
216.392
216.538
216.274
215.59
214.489
212.958
210.982
208.54
205.605
202.184
198.319
194.047
189.405
184.422
179.112
173.5
167.621
161.505
155.181
148.674
142
135.191
128.294
121.352
114.419
107.522
100.661
93.842
87.077
80.381
73.774
67.271
60.876
54.604
48.475
42.51
36.732
31.153
25.775
20.598
15.624
10.859
6.321
2.022
-2.029
-5.827
-9.369
-12.651
-15.664
-18.41
-20.897
-23.133
-25.129
-26.892
-28.426
-29.739
-30.84
-31.739
-32.448
-32.98
-33.345
-33.556
-33.626
-33.569
-33.399
-33.129
-32.769
-32.33
-31.822
-31.256
-30.643
-29.993
-29.315
-28.617
-27.908
-27.196
-26.49
-25.795
-25.117
-24.46
-23.831
-23.231
-22.664
-22.133
-21.639
-21.183
-20.767
-20.389
-20.051
-19.75
-19.487
-19.26
-19.067
-18.906
-18.774
-18.671
-18.592
-18.536
-18.499
-18.48
-18.476
-18.483
-18.5
-18.525
-18.554
-18.587
-18.62
-18.653
-18.683
-18.71
-18.732
-18.748
-18.757
-18.76
-18.756
-18.746
-18.729
-18.707
-18.68
-18.65
-18.616
-18.581
-18.546
-18.513
-18.484
-18.459
-18.442
-18.434
-18.437
-18.453
-18.484
-18.533
-18.601
-18.69
-18.802
-18.939
-19.102
-19.293
-19.513
-19.763
-20.044
-20.357
-20.701
-21.076
-21.482
-21.918
-22.383
-22.875
-23.393
-23.935
-24.498
-25.08
-25.678
-26.289
-26.909
-27.536
-28.164
-28.79
-29.41
-30.018
-30.611
-31.184
-31.731
-32.249
-32.733
-33.176
-33.576
-33.925
-34.221
-34.459
-34.633
-34.742
-34.781
-34.749
-34.643
-34.462
-34.207
-33.877
-33.474
-33
-32.455
-31.844
-31.169
-30.432
-29.64
-28.794
-27.9
-26.963
-25.991
-24.989
-23.965
-22.927
-21.881
-20.836
-19.798
-18.776
-17.778
-16.81
-15.878
-14.989
-14.152
-13.375
-12.666
-12.026
-11.455
-10.949
-10.505
-10.118
-9.781
-9.476
-9.191
-8.91
-8.623
-8.324
-8.006
-7.661
-7.276
-6.835
-6.331
-5.765
-5.15
-4.495
-3.81
-3.114
-2.437
-1.83
-1.342
-1.025
-0.921
-1.062
-1.49
-2.241
-3.346
-4.841
-6.759
-9.12
-11.939
-15.223
-18.953
-23.115
-27.707
-32.607
-37.631
-42.53
-46.945
-50.582
-53.276
-54.781
-54.807
-53.363
-50.595
-46.868
-43.005
-39.534
-36.631
-34.729
-34.192
-34.887
-36.635
-38.53
-38.5
-35.13
-27.445
-14.936
1.039
18.687
36.769
55.246
76.387
103.695
139.633
182.895
227.771
265.514
286.093
281.934
249.911
191.269
111.94
19.988
-78.085
-178.562
-280.603
-384.376
-486.905
-580.869
-657.142
-707.248
-726.926
-717.9
-684.715
-633.322
-569.861
-499.009
-425.99
-356.201
-293.906
-241.913
-200.332
-167.05
-139.174
-115.013
-94.265
-77.663
-66.499
-60.265
-57.236
-55.438
-52.674
-48.076
-41.893
-34.463
-26.273
-17.942
-9.971
-3.017
2.125
5.197
6.345
5.835
4.116
1.625
-1.271
-4.114
-6.4
-7.84
-8.319
-7.833
-6.502
-4.425
-1.672
1.644
5.392
9.453
13.716
18.085
22.494
26.868
31.119
35.167
38.931
42.345
45.378
48.025
50.298
52.223
53.835
55.172
56.282
57.221
58.044
58.802
59.543
60.31
61.147
62.099
63.208
64.514
66.041
67.804
69.809
72.057
74.547
77.274
80.232
83.414
86.81
90.406
94.184
98.126
102.208
106.41
110.704
115.061
119.454
123.864
128.279
132.699
137.112
141.504
145.851
150.122
154.294
158.355
162.292
166.098
169.765
173.282
176.652
179.89
182.995
185.949
188.716
191.236
193.465
195.376
196.949
198.176
199.041
199.517
199.584
199.229
198.431
197.176
195.431
193.147
190.302
186.903
182.984
178.611
173.836
168.692
163.216
157.438
151.392
145.123
138.663
132.035
125.271
118.411
111.506
104.631
97.835
91.143
84.565
78.086
71.703
65.425
59.256
53.2
47.264
41.453
35.782
30.276
24.951
19.815
14.868
10.097
5.499
1.082
-3.143
-7.156
-10.944
-14.501
-17.816
-20.88
-23.688
-26.239
-28.538
-30.6
-32.435
-34.049
-35.45
-36.641
-37.63
-38.428
-39.046
-39.494
-39.787
-39.934
-39.95
-39.849
-39.644
-39.347
-38.968
-38.516
-37.999
-37.426
-36.807
-36.15
-35.463
-34.753
-34.029
-33.297
-32.565
-31.838
-31.121
-30.418
-29.732
-29.067
-28.425
-27.807
-27.215
-26.65
-26.112
-25.602
-25.12
-24.664
-24.235
-23.832
-23.453
-23.097
-22.763
-22.45
-22.155
-21.877
-21.615
-21.368
-21.133
-20.91
-20.697
-20.493
-20.297
-20.108
-19.926
-19.748
-19.575
-19.407
-19.242
-19.08
-18.922
-18.768
-18.618
-18.472
-18.331
-18.195
-18.065
-17.941
-17.824
-17.714
-17.613
-17.519
-17.434
-17.357
-17.29
-17.232
-17.184
-17.146
-17.118
-17.1
-17.092
-17.095
-17.108
-17.131
-17.164
-17.207
-17.261
-17.325
-17.398
-17.482
-17.575
-17.679
-17.792
-17.914
-18.045
-18.185
-18.334
-18.49
-18.653
-18.823
-18.998
-19.178
-19.363
-19.55
-19.74
-19.932
-20.125
-20.318
-20.51
-20.699
-20.885
-21.067
-21.242
-21.409
-21.567
-21.714
-21.848
-21.967
-22.069
-22.151
-22.211
-22.247
-22.256
-22.235
-22.18
-22.091
-21.963
-21.796
-21.588
-21.336
-21.041
-20.701
-20.319
-19.893
-19.426
-18.917
-18.368
-17.781
-17.157
-16.499
-15.808
-15.087
-14.338
-13.568
-12.78
-11.981
-11.174
-10.366
-9.563
-8.77
-7.992
-7.237
-6.507
-5.809
-5.149
-4.535
-3.976
-3.478
-3.042
-2.668
-2.354
-2.092
-1.874
-1.692
-1.528
-1.37
-1.207
-1.029
-0.833
-0.611
-0.353
-0.05
0.311
0.74
1.236
1.793
2.405
3.051
3.706
4.341
4.913
5.378
5.703
5.851
5.785
5.478
4.895
3.999
2.772
1.178
-0.812
-3.213
-6.054
-9.327
-12.997
-17.05
-21.473
-26.189
-31.068
-35.887
-40.315
-44.085
-47.012
-48.868
-49.386
-48.403
-45.984
-42.485
-38.574
-34.894
-31.763
-29.482
-28.531
-29.174
-31.342
-34.239
-36.071
-35.138
-30.403
-21.694
-9.92
4.236
20.582
39.612
63.477
93.808
131.095
174.65
220.122
261.748
293.304
307.292
297.837
261.361
197.823
112.372
13.505
-90.778
-195.925
-301.926
-409.608
-513.438
-611.347
-703.121
-763.937
-771.943
-748.598
-719.198
-681.687
-632.736
-576.132
-512.351
-440.941
-365.737
-293.744
-230.963
-181.024
-143.652
-115.182
-92.691
-74.252
-59.655
-50.204
-45.269
-43.206
-42.284
-40.327
-36.585
-31.409
-24.922
-17.546
-10.008
-2.841
3.217
7.393
9.582
10.025
9.018
7.029
4.521
1.873
-0.428
-1.898
-2.329
-1.676
0.001
2.537
5.809
9.719
14.125
18.874
23.831
28.872
33.899
38.841
43.612
48.122
52.288
56.032
59.317
62.14
64.517
66.482
68.075
69.338
70.324
71.093
71.706
72.222
72.69
73.155
73.666
74.269
75.014
75.947
77.097
78.48
80.107
81.982
84.104
86.471
89.075
91.898
94.928
98.156
101.577
105.185
108.969
112.909
116.98
121.161
125.431
129.769
134.152
138.55
142.941
147.306
151.639
155.931
160.167
164.324
168.371
172.276
176.019
179.589
182.978
186.174
189.165
191.943
194.51
196.868
199.015
200.926
202.563
203.891
204.891
205.552
205.88
205.882
205.547
204.86
203.8
202.344
200.477
198.182
195.431
192.203
188.491
184.312
179.709
174.72
169.367
163.669
157.627
151.236
144.519
137.512
130.26
122.829
115.279
107.664
100.051
92.498
85.052
77.748
70.595
63.601
56.793
50.199
43.866
37.853
32.19
26.889
21.95
17.337
13.026
9.002
5.237
1.709
-1.596
-4.694
-7.581
-10.247
-12.699
-14.947
-17.019
-18.959
-20.79
-22.521
-24.15
-25.656
-27.02
-28.241
-29.307
-30.211
-30.951
-31.526
-31.945
-32.231
-32.396
-32.449
-32.391
-32.21
-31.91
-31.499
-30.992
-30.41
-29.774
-29.097
-28.395
-27.687
-26.984
-26.3
-25.639
-24.998
-24.38
-23.787
-23.225
-22.701
-22.219
-21.781
-21.386
-21.034
-20.724
-20.455
-20.223
-20.026
-19.859
-19.72
-19.607
-19.521
-19.461
-19.425
-19.41
-19.414
-19.435
-19.47
-19.516
-19.57
-19.628
-19.688
-19.747
-19.804
-19.856
-19.903
-19.941
-19.971
-19.99
-19.998
-19.993
-19.976
-19.946
-19.902
-19.844
-19.773
-19.689
-19.592
-19.482
-19.361
-19.23
-19.088
-18.937
-18.778
-18.612
-18.44
-18.263
-18.083
-17.901
-17.718
-17.536
-17.356
-17.18
-17.009
-16.844
-16.687
-16.539
-16.401
-16.274
-16.158
-16.054
-15.964
-15.888
-15.826
-15.779
-15.747
-15.732
-15.732
-15.75
-15.785
-15.838
-15.908
-15.997
-16.104
-16.229
-16.372
-16.533
-16.712
-16.907
-17.119
-17.344
-17.584
-17.835
-18.097
-18.367
-18.646
-18.929
-19.217
-19.506
-19.794
-20.08
-20.361
-20.634
-20.897
-21.148
-21.383
-21.601
-21.797
-21.97
-22.116
-22.232
-22.314
-22.359
-22.363
-22.323
-22.235
-22.097
-21.905
-21.658
-21.353
-20.988
-20.565
-20.082
-19.541
-18.942
-18.286
-17.575
-16.81
-15.994
-15.129
-14.217
-13.261
-12.265
-11.233
-10.173
-9.09
-7.99
-6.88
-5.766
-4.656
-3.557
-2.474
-1.412
-0.377
0.622
1.573
2.467
3.295
4.054
4.742
5.36
5.911
6.402
6.845
7.256
7.649
8.03
8.405
8.774
9.143
9.521
9.923
10.36
10.839
11.361
11.926
12.527
13.155
13.78
14.367
14.869
15.253
15.49
15.559
15.444
15.114
14.537
13.68
12.506
10.994
9.135
6.912
4.308
1.314
-2.054
-5.764
-9.743
-13.95
-18.395
-23.005
-27.634
-32.05
-35.905
-38.909
-40.906
-41.673
-40.913
-38.614
-34.936
-30.301
-25.579
-21.351
-17.899
-15.729
-15.26
-16.488
-18.981
-21.369
-21.674
-18.557
-11.709
-1.846
10.259
24.195
40.422
61.359
89.006
124.307
167.337
213.823
257.368
291.711
308.841
302.979
271.58
213.686
133.586
38.806
-64.182
-169.784
-276.72
-385.112
-488.936
-587.708
-682.712
-748.488
-760.688
-737.937
-703.333
-654.039
-589.109
-516.924
-442.774
-368.979
-298.94
-237.18
-186.014
-146.136
-116.565
-94.211
-76.997
-63.907
-54.677
-49.514
-47.417
-46.543
-44.972
-41.324
-35.434
-27.768
-18.894
-9.616
-0.664
7.217
13.168
16.864
18.449
18.226
16.684
14.304
11.495
8.747
6.582
5.3
5.011
5.704
7.249
9.535
12.482
15.973
19.872
24.057
28.417
32.858
37.308
41.69
45.915
49.899
53.563
56.838
59.693
62.123
64.143
65.782
67.075
68.063
68.793
69.324
69.713
70.012
70.268
70.524
70.824
71.214
71.74
72.444
73.355
74.485
75.845
77.439
79.266
81.325
83.608
86.098
88.784
91.657
94.713
97.949
101.355
104.911
108.592
112.378
116.248
120.183
124.157
128.141
132.113
136.056
139.965
143.835
147.654
151.4
155.044
158.557
161.918
165.119
168.154
171.01
173.675
176.144
178.423
180.526
182.451
184.176
185.657
186.851
187.733
188.289
188.518
188.414
187.963
187.147
185.954
184.382
182.425
180.072
177.294
174.056
170.353
166.209
161.68
156.817
151.658
146.23
140.556
134.67
128.608
122.405
116.087
109.672
103.189
96.675
90.185
83.778
77.49
71.332
65.294
59.371
53.568
47.896
42.362
36.969
31.717
26.615
21.682
16.936
12.388
8.039
3.881
-0.097
-3.896
-7.507
-10.916
-14.113
-17.094
-19.854
-22.392
-24.699
-26.776
-28.626
-30.262
-31.697
-32.939
-33.996
-34.872
-35.576
-36.115
-36.501
-36.745
-36.858
-36.85
-36.734
-36.52
-36.222
-35.851
-35.417
-34.927
-34.388
-33.809
-33.198
-32.562
-31.908
-31.242
-30.571
-29.902
-29.24
-28.59
-27.958
-27.346
-26.758
-26.196
-25.663
-25.161
-24.689
-24.251
-23.845
-23.472
-23.132
-22.825
-22.549
-22.304
-22.089
-21.903
-21.743
-21.609
-21.499
-21.411
-21.343
-21.294
-21.263
-21.248
-21.247
-21.259
-21.282
-21.315
-21.357
-21.407
-21.462
-21.522
-21.585
-21.651
-21.719
-21.786
-21.854
-21.921
-21.987
-22.051
-22.113
-22.172
-22.229
-22.282
-22.332
-22.379
-22.423
-22.463
-22.5
-22.533
-22.563
-22.589
-22.612
-22.631
-22.647
-22.659
-22.668
-22.674
-22.675
-22.674
-22.668
-22.659
-22.646
-22.631
-22.611
-22.589
-22.564
-22.535
-22.505
-22.472
-22.438
-22.402
-22.364
-22.326
-22.288
-22.249
-22.212
-22.176
-22.142
-22.111
-22.083
-22.059
-22.041
-22.028
-22.022
-22.024
-22.035
-22.056
-22.087
-22.131
-22.187
-22.258
-22.344
-22.445
-22.563
-22.698
-22.851
-23.021
-23.208
-23.413
-23.634
-23.872
-24.125
-24.394
-24.676
-24.971
-25.277
-25.592
-25.915
-26.244
-26.576
-26.908
-27.239
-27.565
-27.883
-28.191
-28.485
-28.761
-29.015
-29.245
-29.446
-29.615
-29.747
-29.84
-29.889
-29.893
-29.848
-29.752
-29.604
-29.403
-29.149
-28.843
-28.484
-28.074
-27.614
-27.107
-26.554
-25.958
-25.321
-24.645
-23.936
-23.196
-22.432
-21.649
-20.851
-20.044
-19.234
-18.428
-17.632
-16.852
-16.092
-15.357
-14.651
-13.981
-13.356
-12.781
-12.257
-11.781
-11.352
-10.966
-10.621
-10.307
-10.006
-9.704
-9.384
-9.037
-8.658
-8.243
-7.783
-7.266
-6.678
-6.015
-5.282
-4.492
-3.655
-2.78
-1.883
-1.002
-0.193
0.485
0.972
1.226
1.214
0.893
0.232
-0.815
-2.296
-4.243
-6.682
-9.625
-13.065
-17.014
-21.499
-26.447
-31.689
-36.976
-41.947
-46.313
-49.883
-52.413
-53.603
-53.288
-51.532
-48.691
-45.436
-42.372
-39.771
-37.9
-37.207
-37.948
-40.056
-42.736
-44.222
-42.851
-37.572
-28.189
-15.618
-0.532
16.702
36.331
60.656
91.526
129.689
174.977
222.611
265.829
298.111
311.32
300.084
262.479
198.531
113.24
14.077
-92.666
-202.515
-313.81
-425.811
-534.882
-632.907
-709.727
-756.827
-770.526
-754.147
-714.58
-658.683
-592.176
-517.593
-437.671
-357.323
-281.802
-217.398
-167.659
-131.676
-106.592
-88.055
-73.028
-61.003
-52.425
-47.669
-45.889
-45.223
-43.683
-39.98
-34.057
-26.4
-17.637
-8.669
-0.241
6.942
12.123
15.11
16.111
15.45
13.622
11.123
8.372
5.855
4.06
3.221
3.406
4.572
6.572
9.293
12.645
16.495
20.702
25.138
29.692
34.275
38.818
43.234
47.433
51.327
54.831
57.902
60.523
62.703
64.467
65.849
66.888
67.634
68.148
68.489
68.712
68.871
69.01
69.178
69.427
69.803
70.357
71.12
72.113
73.35
74.837
76.575
78.565
80.8
83.268
85.959
88.862
91.97
95.274
98.763
102.424
106.239
110.193
114.269
118.45
122.719
127.056
131.443
135.86
140.288
144.706
149.095
153.43
157.689
161.848
165.882
169.77
173.487
177.01
180.32
183.393
186.213
188.761
191.02
192.974
194.611
195.917
196.882
197.496
197.752
197.643
197.167
196.319
195.1
193.511
191.554
189.236
186.561
183.54
180.181
176.496
172.499
168.205
163.628
158.787
153.7
148.387
142.868
137.165
131.299
125.293
119.17
112.953
106.664
100.327
93.964
87.598
81.251
74.944
68.698
62.534
56.471
50.528
44.722
39.07
33.587
28.288
23.185
18.29
13.614
9.166
4.952
0.98
-2.747
-6.225
-9.452
-12.428
-15.154
-17.632
-19.865
-21.857
-23.616
-25.146
-26.456
-27.554
-28.449
-29.152
-29.671
-30.018
-30.203
-30.24
-30.137
-29.909
-29.565
-29.118
-28.58
-27.961
-27.274
-26.528
-25.733
-24.901
-24.041
-23.16
-22.269
-21.374
-20.483
-19.603
-18.74
-17.898
-17.083
-16.299
-15.549
-14.837
-14.164
-13.532
-12.944
-12.399
-11.898
-11.442
-11.03
-10.662
-10.336
-10.053
-9.81
-9.607
-9.441
-9.312
-9.217
-9.154
-9.123
-9.12
-9.145
-9.195
-9.269
-9.366
-9.483
-9.619
-9.773
-9.943
-10.128
-10.326
-10.538
-10.761
-10.995
-11.239
-11.492
-11.753
-12.022
-12.297
-12.578
-12.865
-13.156
-13.451
-13.749
-14.048
-14.349
-14.651
-14.951
-15.251
-15.547
-15.84
-16.128
-16.41
-16.685
-16.952
-17.21
-17.458
-17.694
-17.919
-18.13
-18.327
-18.509
-18.676
-18.827
-18.962
-19.08
-19.181
-19.265
-19.332
-19.382
-19.416
-19.433
-19.434
-19.421
-19.393
-19.353
-19.301
-19.238
-19.167
-19.089
-19.005
-18.918
-18.83
-18.743
-18.659
-18.58
-18.508
-18.447
-18.398
-18.363
-18.344
-18.343
-18.362
-18.401
-18.462
-18.545
-18.651
-18.779
-18.93
-19.104
-19.3
-19.517
-19.754
-20.01
-20.283
-20.571
-20.872
-21.183
-21.5
-21.821
-22.142
-22.46
-22.771
-23.069
-23.351
-23.612
-23.847
-24.051
-24.219
-24.346
-24.425
-24.454
-24.427
-24.34
-24.191
-23.975
-23.693
-23.342
-22.922
-22.433
-21.875
-21.249
-20.556
-19.797
-18.975
-18.091
-17.148
-16.15
-15.103
-14.013
-12.888
-11.733
-10.556
-9.365
-8.167
-6.971
-5.784
-4.611
-3.462
-2.347
-1.274
-0.258
0.693
1.574
2.384
3.121
3.79
4.395
4.944
5.452
5.929
6.383
6.819
7.237
7.644
8.05
8.464
8.901
9.367
9.861
10.378
10.913
11.45
11.968
12.437
12.813
13.062
13.159
13.078
12.798
12.285
11.501
10.408
8.976
7.191
5.042
2.512
-0.416
-3.747
-7.474
-11.549
-15.927
-20.614
-25.537
-30.557
-35.453
-39.863
-43.472
-46.097
-47.491
-47.356
-45.675
-42.585
-38.486
-34.263
-30.53
-27.537
-25.781
-25.675
-27.148
-30.057
-33.277
-34.494
-32.308
-25.689
-14.348
0.213
17.409
37.013
59.349
86.856
120.481
160.215
204.487
247.585
283.93
306.805
308.529
285.005
233.902
157.81
64.945
-36.468
-139.41
-242.323
-346.481
-448.608
-549.59
-649.032
-721.618
-742.457
-727.109
-697.906
-652.429
-590.421
-519.889
-444.904
-369.096
-297.041
-234.129
-183.897
-146.17
-118.836
-98.071
-81.014
-66.95
-56.307
-49.791
-46.778
-45.455
-43.72
-40.056
-34.267
-26.832
-18.29
-9.38
-0.761
6.881
12.666
16.229
17.703
17.374
15.712
13.183
10.174
7.167
4.713
3.14
2.575
3.026
4.366
6.485
9.314
12.734
16.607
20.804
25.206
29.718
34.271
38.785
43.17
47.336
51.198
54.684
57.759
60.414
62.659
64.518
66.025
67.219
68.149
68.875
69.451
69.932
70.366
70.794
71.264
71.82
72.509
73.371
74.434
75.714
77.221
78.959
80.931
83.134
85.56
88.198
91.036
94.067
97.28
100.667
104.218
107.916
111.748
115.697
119.747
123.882
128.085
132.339
136.624
140.921
145.213
149.48
153.701
157.855
161.919
165.87
169.687
173.346
176.827
180.108
183.168
185.988
188.55
190.837
192.834
194.526
195.899
196.944
197.648
198.005
198.007
197.649
196.927
195.84
194.388
192.573
190.398
187.868
184.991
181.775
178.23
174.368
170.202
165.747
161.019
156.035
150.813
145.373
139.734
133.917
127.945
121.838
115.62
109.313
102.938
96.518
90.076
83.634
77.212
70.831
64.512
58.274
52.137
46.116
40.231
34.495
28.925
23.532
18.33
13.329
8.539
3.968
-0.377
-4.491
-8.37
-12.01
-15.411
-18.571
-21.493
-24.178
-26.63
-28.853
-30.852
-32.635
-34.208
-35.58
-36.758
-37.753
-38.573
-39.23
-39.732
-40.092
-40.319
-40.424
-40.419
-40.313
-40.118
-39.843
-39.498
-39.093
-38.637
-38.139
-37.606
-37.048
-36.47
-35.88
-35.284
-34.687
-34.094
-33.51
-32.938
-32.382
-31.844
-31.328
-30.834
-30.364
-29.919
-29.5
-29.106
-28.737
-28.394
-28.074
-27.778
-27.504
-27.251
-27.018
-26.803
-26.604
-26.421
-26.251
-26.093
-25.946
-25.808
-25.679
-25.556
-25.439
-25.328
-25.22
-25.116
-25.014
-24.915
-24.818
-24.723
-24.628
-24.535
-24.443
-24.352
-24.262
-24.174
-24.087
-24.002
-23.92
-23.839
-23.762
-23.688
-23.617
-23.551
-23.49
-23.434
-23.383
-23.339
-23.302
-23.273
-23.251
-23.237
-23.232
-23.236
-23.249
-23.271
-23.304
-23.346
-23.4
-23.464
-23.539
-23.625
-23.724
-23.834
-23.957
-24.092
-24.241
-24.403
-24.578
-24.768
-24.972
-25.19
-25.422
-25.669
-25.929
-26.203
-26.489
-26.788
-27.097
-27.415
-27.741
-28.075
-28.413
-28.755
-29.098
-29.441
-29.782
-30.118
-30.448
-30.768
-31.075
-31.368
-31.644
-31.898
-32.129
-32.333
-32.507
-32.647
-32.751
-32.815
-32.835
-32.809
-32.733
-32.605
-32.422
-32.182
-31.883
-31.526
-31.109
-30.632
-30.099
-29.509
-28.865
-28.169
-27.425
-26.634
-25.802
-24.93
-24.024
-23.086
-22.122
-21.138
-20.14
-19.133
-18.125
-17.12
-16.126
-15.149
-14.197
-13.277
-12.393
-11.549
-10.751
-10.005
-9.321
-8.703
-8.152
-7.665
-7.242
-6.877
-6.568
-6.303
-6.067
-5.843
-5.613
-5.368
-5.104
-4.813
-4.489
-4.119
-3.686
-3.189
-2.63
-2.02
-1.369
-0.684
0.019
0.705
1.32
1.808
2.109
2.185
2.004
1.53
0.738
-0.415
-1.977
-3.975
-6.434
-9.366
-12.764
-16.644
-21.039
-25.874
-30.981
-36.114
-40.922
-45.114
-48.508
-50.87
-51.912
-51.498
-49.72
-46.936
-43.805
-40.948
-38.666
-37.182
-36.888
-37.979
-40.251
-43.169
-45.327
-44.853
-40.602
-31.565
-17.589
-0.099
19.751
40.752
63.195
89.684
122.129
161.761
206.135
248.477
281.567
296.826
287.605
251.835
190.149
107.807
12.694
-89.03
-193.541
-299.755
-407.221
-511.64
-604.577
-676.06
-717.879
-728.399
-711.758
-674.146
-622.497
-561.362
-493.676
-424.204
-357.622
-297.565
-246.686
-204.116
-167.248
-134.959
-106.873
-83.747
-67.26
-57.454
-52.79
-51.271
-50.463
-48.543
-44.957
-39.756
-33.203
-25.705
-17.808
-10.07
-3.22
1.934
5.126
6.466
6.19
4.736
2.548
-0
-2.423
-4.203
-5.078
-4.95
-3.833
-1.869
0.837
4.206
8.104
12.383
16.912
21.576
26.287
30.981
35.575
39.975
44.092
47.837
51.165
54.058
56.517
58.567
60.235
61.559
62.59
63.384
63.999
64.489
64.903
65.285
65.683
66.145
66.719
67.454
68.381
69.523
70.892
72.496
74.337
76.415
78.723
81.249
83.984
86.919
90.044
93.353
96.834
100.472
104.254
108.161
112.179
116.29
120.477
124.723
129.008
133.313
137.62
141.909
146.16
150.351
154.459
158.461
162.334
166.055
169.603
172.955
176.09
178.989
181.634
184.007
186.093
187.876
189.344
190.485
191.289
191.747
191.853
191.602
190.99
190.015
188.678
186.981
184.927
182.522
179.773
176.69
173.281
169.561
165.541
161.237
156.665
151.843
146.789
141.522
136.062
130.431
124.65
118.74
112.725
106.626
100.466
94.266
88.049
81.836
75.647
69.504
63.425
57.431
51.539
45.766
40.13
34.645
29.325
24.183
19.231
14.48
9.938
5.613
1.512
-2.361
-6
-9.405
-12.574
-15.506
-18.204
-20.669
-22.906
-24.918
-26.711
-28.293
-29.669
-30.849
-31.839
-32.651
-33.292
-33.774
-34.106
-34.299
-34.362
-34.308
-34.146
-33.888
-33.542
-33.12
-32.632
-32.086
-31.493
-30.86
-30.197
-29.511
-28.808
-28.097
-27.383
-26.672
-25.969
-25.278
-24.604
-23.95
-23.32
-22.714
-22.136
-21.587
-21.067
-20.579
-20.121
-19.694
-19.298
-18.933
-18.596
-18.288
-18.008
-17.753
-17.522
-17.314
-17.127
-16.96
-16.811
-16.677
-16.559
-16.453
-16.359
-16.275
-16.199
-16.131
-16.07
-16.013
-15.96
-15.911
-15.863
-15.818
-15.773
-15.729
-15.685
-15.64
-15.595
-15.548
-15.5
-15.45
-15.398
-15.344
-15.289
-15.232
-15.172
-15.111
-15.048
-14.984
-14.918
-14.851
-14.783
-14.714
-14.645
-14.576
-14.507
-14.439
-14.372
-14.307
-14.244
-14.183
-14.124
-14.07
-14.019
-13.972
-13.931
-13.896
-13.867
-13.846
-13.834
-13.83
-13.837
-13.855
-13.886
-13.929
-13.987
-14.06
-14.149
-14.256
-14.381
-14.525
-14.689
-14.873
-15.077
-15.303
-15.549
-15.815
-16.101
-16.406
-16.73
-17.071
-17.428
-17.8
-18.185
-18.582
-18.988
-19.402
-19.821
-20.242
-20.663
-21.08
-21.49
-21.89
-22.276
-22.644
-22.991
-23.312
-23.602
-23.858
-24.075
-24.249
-24.375
-24.448
-24.466
-24.425
-24.321
-24.153
-23.918
-23.617
-23.248
-22.811
-22.308
-21.738
-21.103
-20.405
-19.645
-18.827
-17.951
-17.022
-16.043
-15.02
-13.958
-12.864
-11.743
-10.602
-9.447
-8.285
-7.125
-5.972
-4.833
-3.715
-2.624
-1.568
-0.559
0.396
1.295
2.137
2.924
3.659
4.347
4.996
5.62
6.231
6.842
7.461
8.089
8.732
9.396
10.088
10.824
11.609
12.439
13.306
14.2
15.098
15.986
16.834
17.588
18.204
18.636
18.833
18.772
18.423
17.746
16.723
15.312
13.474
11.192
8.438
5.204
1.518
-2.621
-7.22
-12.183
-17.364
-22.532
-27.344
-31.542
-34.952
-37.35
-38.464
-38.132
-36.405
-33.626
-30.442
-27.439
-24.88
-23.035
-22.366
-23.158
-25.393
-28.257
-29.919
-28.767
-23.843
-15.158
-3.909
9.26
24.286
41.891
64.798
94.912
132.869
178.069
225.619
269.19
302.057
316.209
306.017
268.619
204.707
120.132
23.418
-78.138
-180.786
-285.104
-392.003
-495.733
-593.525
-684.121
-743.267
-749.595
-722.88
-687.174
-640.082
-578.7
-508.59
-432.85
-354.575
-279.901
-215.466
-164.963
-128.144
-101.928
-82.02
-65.735
-52.586
-43.211
-38.106
-36.356
-36.048
-35.124
-32.241
-27.291
-20.695
-12.983
-4.933
2.794
9.513
14.415
17.244
18.165
17.469
15.632
13.127
10.346
7.772
5.91
5.015
5.165
6.328
8.348
11.109
14.519
18.44
22.722
27.234
31.86
36.509
41.111
45.582
49.829
53.766
57.311
60.421
63.083
65.303
67.107
68.529
69.61
70.4
70.958
71.343
71.609
71.809
71.988
72.194
72.476
72.881
73.456
74.231
75.226
76.455
77.922
79.629
81.575
83.753
86.152
88.761
91.572
94.576
97.763
101.125
104.645
108.309
112.101
116.004
120.002
124.078
128.214
132.392
136.591
140.794
144.98
149.129
153.219
157.227
161.13
164.904
168.528
171.978
175.233
178.271
181.074
183.622
185.898
187.886
189.572
190.942
191.984
192.689
193.047
193.052
192.699
191.984
190.906
189.464
187.661
185.5
182.988
180.13
176.937
173.418
169.586
165.455
161.04
156.356
151.421
146.255
140.876
135.306
129.565
123.675
117.66
111.541
105.341
99.084
92.791
86.485
80.188
73.921
67.706
61.564
55.512
49.571
43.758
38.09
32.582
27.249
22.105
17.16
12.426
7.912
3.625
-0.427
-4.24
-7.81
-11.136
-14.215
-17.048
-19.638
-21.986
-24.098
-25.978
-27.633
-29.07
-30.296
-31.322
-32.156
-32.809
-33.291
-33.613
-33.786
-33.823
-33.734
-33.531
-33.227
-32.832
-32.359
-31.817
-31.218
-30.572
-29.889
-29.178
-28.449
-27.709
-26.966
-26.228
-25.5
-24.789
-24.099
-23.436
-22.803
-22.203
-21.64
-21.114
-20.629
-20.184
-19.78
-19.418
-19.096
-18.815
-18.573
-18.369
-18.201
-18.067
-17.966
-17.894
-17.851
-17.832
-17.836
-17.861
-17.903
-17.961
-18.031
-18.113
-18.203
-18.3
-18.402
-18.506
-18.612
-18.717
-18.821
-18.921
-19.017
-19.109
-19.194
-19.272
-19.343
-19.405
-19.459
-19.504
-19.539
-19.565
-19.58
-19.585
-19.58
-19.564
-19.537
-19.5
-19.451
-19.392
-19.323
-19.242
-19.151
-19.05
-18.939
-18.818
-18.688
-18.548
-18.4
-18.243
-18.079
-17.907
-17.728
-17.543
-17.352
-17.156
-16.956
-16.752
-16.546
-16.34
-16.133
-15.927
-15.724
-15.526
-15.333
-15.147
-14.97
-14.804
-14.651
-14.512
-14.389
-14.283
-14.197
-14.132
-14.088
-14.067
-14.07
-14.097
-14.15
-14.227
-14.329
-14.456
-14.608
-14.784
-14.984
-15.206
-15.451
-15.715
-15.999
-16.3
-16.615
-16.942
-17.28
-17.624
-17.972
-18.322
-18.668
-19.009
-19.339
-19.656
-19.954
-20.23
-20.48
-20.7
-20.886
-21.036
-21.146
-21.214
-21.238
-21.218
-21.154
-21.045
-20.891
-20.693
-20.452
-20.17
-19.847
-19.487
-19.09
-18.659
-18.198
-17.711
-17.203
-16.679
-16.143
-15.6
-15.054
-14.513
-13.983
-13.467
-12.97
-12.495
-12.047
-11.632
-11.259
-10.93
-10.645
-10.402
-10.198
-10.029
-9.893
-9.778
-9.669
-9.552
-9.412
-9.242
-9.038
-8.796
-8.506
-8.16
-7.744
-7.255
-6.7
-6.084
-5.415
-4.703
-3.958
-3.211
-2.511
-1.904
-1.441
-1.162
-1.095
-1.273
-1.724
-2.485
-3.601
-5.103
-7.018
-9.367
-12.155
-15.407
-19.17
-23.406
-27.975
-32.659
-37.131
-41.094
-44.364
-46.715
-47.85
-47.611
-46.058
-43.525
-40.696
-38.242
-36.491
-35.668
-36.134
-38.068
-41.301
-45.326
-48.649
-49.294
-46.114
-38.128
-25.206
-8.787
10.454
31.885
55.483
83.516
116.835
155.27
197.269
237.556
271.29
292.801
295.218
274.277
226.836
154.383
63.804
-37.166
-141.195
-246.208
-352.816
-457.878
-562.616
-666.731
-745.647
-774.61
-766.963
-742.867
-700.545
-640.684
-571.209
-495.807
-417.405
-340.36
-270.575
-212.802
-168.173
-135.207
-110.102
-89.968
-74
-62.519
-56.393
-54.684
-55.078
-55.182
-53.116
-48.437
-41.543
-32.946
-23.375
-13.702
-4.878
2.073
6.643
8.924
9.224
8.007
5.743
2.868
-0.074
-2.487
-3.995
-4.472
-3.928
-2.495
-0.291
2.617
6.115
10.057
14.316
18.772
23.331
27.928
32.49
36.924
41.14
45.048
48.57
51.673
54.346
56.598
58.454
59.947
61.112
62
62.672
63.185
63.594
63.948
64.29
64.667
65.129
65.723
66.495
67.474
68.678
70.118
71.8
73.726
75.894
78.298
80.923
83.758
86.794
90.022
93.431
97.011
100.746
104.62
108.616
112.717
116.905
121.165
125.475
129.818
134.173
138.521
142.844
147.12
151.326
155.44
159.439
163.301
167.002
170.52
173.835
176.924
179.77
182.354
184.659
186.67
188.373
189.755
190.806
191.515
191.875
191.88
191.525
190.806
189.724
188.277
186.469
184.304
181.788
178.927
175.731
172.21
168.377
164.246
159.831
155.148
150.216
145.052
139.675
134.108
128.369
122.482
116.467
110.348
104.148
97.887
91.59
85.277
78.971
72.693
66.464
60.304
54.232
48.267
42.427
36.729
31.188
25.819
20.635
15.648
10.871
6.311
1.978
-2.123
-5.984
-9.602
-12.975
-16.1
-18.978
-21.61
-23.998
-26.146
-28.059
-29.742
-31.202
-32.448
-33.487
-34.329
-34.984
-35.461
-35.774
-35.931
-35.946
-35.83
-35.594
-35.251
-34.813
-34.291
-33.697
-33.042
-32.336
-31.592
-30.818
-30.024
-29.22
-28.414
-27.614
-26.827
-26.06
-25.319
-24.61
-23.936
-23.303
-22.713
-22.169
-21.673
-21.226
-20.83
-20.484
-20.189
-19.944
-19.746
-19.596
-19.49
-19.427
-19.403
-19.416
-19.463
-19.541
-19.646
-19.776
-19.926
-20.093
-20.274
-20.465
-20.664
-20.867
-21.07
-21.272
-21.468
-21.658
-21.838
-22.007
-22.162
-22.303
-22.426
-22.532
-22.62
-22.688
-22.737
-22.765
-22.774
-22.763
-22.733
-22.684
-22.617
-22.534
-22.435
-22.321
-22.195
-22.056
-21.908
-21.752
-21.588
-21.42
-21.248
-21.075
-20.902
-20.732
-20.565
-20.404
-20.251
-20.106
-19.972
-19.848
-19.738
-19.642
-19.56
-19.495
-19.446
-19.414
-19.401
-19.407
-19.431
-19.475
-19.538
-19.62
-19.721
-19.841
-19.98
-20.137
-20.312
-20.504
-20.712
-20.935
-21.172
-21.423
-21.685
-21.957
-22.237
-22.523
-22.813
-23.105
-23.397
-23.686
-23.971
-24.248
-24.517
-24.774
-25.018
-25.245
-25.453
-25.641
-25.804
-25.942
-26.05
-26.128
-26.172
-26.181
-26.152
-26.082
-25.97
-25.814
-25.611
-25.36
-25.058
-24.705
-24.3
-23.842
-23.331
-22.768
-22.154
-21.492
-20.784
-20.033
-19.241
-18.412
-17.55
-16.659
-15.743
-14.805
-13.851
-12.883
-11.909
-10.932
-9.96
-8.998
-8.052
-7.127
-6.229
-5.364
-4.538
-3.757
-3.023
-2.34
-1.712
-1.143
-0.642
-0.211
0.152
0.448
0.682
0.86
0.987
1.074
1.14
1.201
1.276
1.376
1.506
1.672
1.886
2.158
2.504
2.931
3.435
4.007
4.642
5.327
6.048
6.772
7.443
8.004
8.397
8.576
8.501
8.138
7.455
6.411
4.96
3.065
0.698
-2.154
-5.481
-9.289
-13.603
-18.356
-23.388
-28.446
-33.157
-37.209
-40.406
-42.517
-43.261
-42.519
-40.351
-37.087
-33.481
-30.178
-27.48
-25.754
-25.361
-26.387
-28.801
-31.781
-33.324
-31.775
-25.956
-15.533
-1.921
13.908
31.672
51.689
76.467
107.91
146.442
191.44
238.295
280.364
310.213
319.024
300.642
253.021
179.032
86.454
-15.602
-120.216
-225.439
-331.92
-439.496
-544.004
-635.6
-703.369
-739.35
-742.14
-716.736
-670.54
-611.233
-543.302
-469.46
-393.279
-318.478
-250.496
-193.725
-149.265
-116.061
-90.648
-70.348
-54.401
-42.967
-36.821
-35.088
-35.556
-35.927
-34.363
-30.384
-24.337
-16.687
-8.117
0.557
8.431
14.504
18.276
19.83
19.465
17.643
14.829
11.451
8.044
5.201
3.292
2.445
2.651
3.776
5.699
8.351
11.612
15.333
19.382
23.636
27.996
32.396
36.758
40.987
44.993
48.69
52.003
54.901
57.378
59.442
61.123
62.451
63.466
64.219
64.769
65.174
65.486
65.756
66.028
66.347
66.761
67.317
68.057
69.008
70.187
71.603
73.261
75.163
77.307
79.685
82.286
85.098
88.113
91.321
94.715
98.282
102.009
105.88
109.879
113.99
118.197
122.484
126.831
131.222
135.637
140.057
144.463
148.834
153.149
157.385
161.518
165.527
169.388
173.08
176.579
179.867
182.921
185.724
188.258
190.507
192.454
194.087
195.392
196.359
196.979
197.242
197.143
196.678
195.843
194.638
193.062
191.119
188.813
186.148
183.134
179.779
176.095
172.093
167.787
163.193
158.328
153.21
147.857
142.289
136.528
130.594
124.511
118.301
111.986
105.59
99.135
92.646
86.144
79.652
73.192
66.786
60.455
54.218
48.094
42.103
36.261
30.585
25.09
19.789
14.694
9.818
5.169
0.756
-3.414
-7.336
-11.007
-14.424
-17.586
-20.494
-23.149
-25.554
-27.714
-29.635
-31.323
-32.786
-34.033
-35.072
-35.914
-36.571
-37.053
-37.371
-37.539
-37.569
-37.472
-37.261
-36.949
-36.549
-36.072
-35.53
-34.934
-34.297
-33.628
-32.938
-32.236
-31.531
-30.831
-30.144
-29.475
-28.833
-28.221
-27.644
-27.106
-26.61
-26.159
-25.753
-25.396
-25.085
-24.823
-24.606
-24.435
-24.308
-24.223
-24.176
-24.166
-24.19
-24.244
-24.324
-24.429
-24.553
-24.694
-24.848
-25.011
-25.181
-25.354
-25.526
-25.696
-25.861
-26.018
-26.166
-26.302
-26.426
-26.536
-26.631
-26.711
-26.775
-26.823
-26.855
-26.872
-26.875
-26.865
-26.842
-26.809
-26.766
-26.717
-26.662
-26.604
-26.544
-26.485
-26.429
-26.379
-26.335
-26.302
-26.28
-26.272
-26.279
-26.304
-26.348
-26.411
-26.496
-26.603
-26.732
-26.884
-27.057
-27.253
-27.469
-27.705
-27.959
-28.231
-28.519
-28.821
-29.133
-29.455
-29.783
-30.114
-30.446
-30.774
-31.096
-31.408
-31.706
-31.987
-32.246
-32.48
-32.685
-32.857
-32.992
-33.086
-33.137
-33.14
-33.091
-32.99
-32.834
-32.621
-32.351
-32.022
-31.636
-31.194
-30.698
-30.15
-29.551
-28.905
-28.215
-27.484
-26.717
-25.915
-25.084
-24.228
-23.351
-22.461
-21.564
-20.664
-19.768
-18.88
-18.009
-17.16
-16.341
-15.554
-14.803
-14.093
-13.429
-12.819
-12.269
-11.777
-11.341
-10.958
-10.623
-10.333
-10.078
-9.838
-9.595
-9.334
-9.041
-8.713
-8.344
-7.923
-7.436
-6.871
-6.219
-5.491
-4.699
-3.844
-2.94
-2.006
-1.079
-0.22
0.509
1.055
1.371
1.416
1.157
0.554
-0.432
-1.841
-3.709
-6.047
-8.866
-12.159
-15.921
-20.164
-24.796
-29.627
-34.403
-38.767
-42.417
-45.184
-46.831
-47.06
-45.85
-43.313
-39.781
-36.048
-32.644
-29.744
-27.784
-27.14
-27.728
-29.462
-31.372
-31.309
-27.949
-20.359
-8.519
5.8
21.514
38.098
56.702
80.527
111.684
151.103
195.972
239.34
273.482
289.747
281.426
246.279
185.998
106.527
16.406
-77.455
-172.268
-267.807
-364.841
-461.519
-550.246
-621.968
-669.237
-687.947
-680.572
-652.172
-607.096
-550.287
-485.063
-414.924
-345.946
-283.195
-230.162
-188.362
-155.493
-128.206
-104.689
-84.08
-67.182
-55.603
-48.922
-45.599
-43.718
-41.006
-36.558
-30.578
-23.342
-15.284
-6.972
1.127
8.363
13.919
17.499
19.22
19.315
18.201
16.293
13.93
11.558
9.679
8.584
8.388
9.097
10.593
12.774
15.573
18.879
22.564
26.511
30.611
34.777
38.946
43.049
47.005
50.738
54.171
57.24
59.916
62.196
64.093
65.637
66.861
67.803
68.515
69.052
69.47
69.819
70.146
70.491
70.899
71.415
72.082
72.941
74.019
75.331
76.889
78.696
80.754
83.061
85.608
88.383
91.376
94.581
97.989
101.588
105.36
109.291
113.361
117.55
121.839
126.207
130.628
135.086
139.564
144.046
148.517
152.952
157.325
161.612
165.786
169.828
173.725
177.451
180.984
184.311
187.413
190.283
192.916
195.283
197.357
199.117
200.537
201.61
202.331
202.688
202.676
202.285
201.502
200.331
198.777
196.828
194.485
191.739
188.58
185.036
181.136
176.901
172.36
167.53
162.426
157.077
151.508
145.743
139.809
133.725
127.509
121.197
114.82
108.414
102.016
95.636
89.284
82.977
76.727
70.554
64.478
58.509
52.657
46.939
41.372
35.971
30.755
25.727
20.893
16.256
11.818
7.589
3.581
-0.203
-3.759
-7.083
-10.176
-13.034
-15.657
-18.05
-20.219
-22.172
-23.916
-25.458
-26.802
-27.956
-28.93
-29.732
-30.373
-30.862
-31.208
-31.423
-31.516
-31.499
-31.382
-31.174
-30.883
-30.519
-30.09
-29.605
-29.071
-28.496
-27.888
-27.252
-26.597
-25.928
-25.25
-24.569
-23.89
-23.216
-22.551
-21.899
-21.263
-20.645
-20.048
-19.472
-18.921
-18.394
-17.893
-17.42
-16.973
-16.554
-16.162
-15.798
-15.461
-15.151
-14.867
-14.61
-14.377
-14.17
-13.986
-13.825
-13.687
-13.57
-13.474
-13.398
-13.34
-13.301
-13.278
-13.27
-13.278
-13.299
-13.333
-13.379
-13.435
-13.501
-13.576
-13.658
-13.746
-13.84
-13.939
-14.042
-14.147
-14.255
-14.365
-14.475
-14.586
-14.696
-14.806
-14.915
-15.023
-15.13
-15.235
-15.339
-15.442
-15.545
-15.647
-15.75
-15.854
-15.96
-16.067
-16.179
-16.294
-16.415
-16.543
-16.677
-16.821
-16.974
-17.138
-17.313
-17.501
-17.701
-17.914
-18.141
-18.38
-18.632
-18.896
-19.172
-19.46
-19.757
-20.064
-20.379
-20.699
-21.024
-21.35
-21.675
-21.997
-22.312
-22.617
-22.909
-23.185
-23.441
-23.674
-23.879
-24.052
-24.189
-24.287
-24.341
-24.347
-24.302
-24.203
-24.047
-23.832
-23.557
-23.222
-22.826
-22.371
-21.856
-21.284
-20.655
-19.972
-19.237
-18.454
-17.625
-16.753
-15.843
-14.902
-13.935
-12.949
-11.95
-10.945
-9.941
-8.944
-7.962
-7.003
-6.071
-5.172
-4.313
-3.5
-2.746
-2.055
-1.428
-0.865
-0.363
0.081
0.473
0.822
1.145
1.455
1.766
2.087
2.423
2.779
3.165
3.589
4.067
4.603
5.193
5.831
6.508
7.211
7.924
8.617
9.237
9.739
10.079
10.209
10.099
9.711
9.005
7.96
6.541
4.72
2.479
-0.207
-3.348
-6.926
-10.936
-15.372
-20.141
-25.089
-29.973
-34.451
-38.243
-41.155
-42.969
-43.421
-42.376
-39.932
-36.462
-32.638
-29.047
-25.942
-23.589
-22.443
-22.789
-24.596
-26.971
-28.06
-26.353
-20.892
-12.038
-1.319
11.091
25.276
42.645
66.859
98.659
137.611
182.015
225.375
262.293
287.676
294.477
278.638
237.54
170.931
84.185
-15.406
-121.407
-229.77
-339.453
-449.24
-554.214
-645.195
-711.802
-746.841
-749.65
-725.821
-683.297
-628.767
-565.681
-494.931
-418.393
-340.443
-267.396
-205.979
-159.508
-127.029
-104.945
-88.69
-75.712
-65.753
-59.19
-56.149
-55.367
-54.723
-52.701
-48.537
-42.287
-34.509
-25.855
-17.166
-9.394
-3.456
0.202
1.667
1.254
-0.57
-3.349
-6.661
-9.983
-12.742
-14.578
-15.364
-15.107
-13.941
-11.986
-9.312
-6.038
-2.313
1.73
5.966
10.295
14.648
18.947
23.098
27.012
30.601
33.795
36.561
38.894
40.803
42.315
43.465
44.291
44.845
45.186
45.374
45.463
45.504
45.539
45.617
45.786
46.092
46.577
47.268
48.182
49.33
50.716
52.343
54.208
56.305
58.621
61.147
63.873
66.791
69.891
73.163
76.592
80.164
83.861
87.668
91.57
95.549
99.588
103.668
107.771
111.877
115.968
120.024
124.022
127.942
131.76
135.454
139.004
142.387
145.583
148.572
151.335
153.855
156.115
158.102
159.801
161.2
162.288
163.055
163.495
163.602
163.369
162.796
161.879
160.621
159.023
157.089
154.825
152.238
149.337
146.133
142.636
138.861
134.822
130.534
126.015
121.283
116.357
111.256
106
100.61
95.107
89.514
83.85
78.138
72.399
66.653
60.921
55.223
49.579
44.007
38.525
33.151
27.9
22.789
17.832
13.042
8.43
4.009
-0.212
-4.225
-8.022
-11.599
-14.95
-18.073
-20.965
-23.626
-26.057
-28.259
-30.236
-31.992
-33.532
-34.862
-35.99
-36.923
-37.669
-38.239
-38.641
-38.886
-38.984
-38.945
-38.78
-38.501
-38.117
-37.64
-37.08
-36.448
-35.755
-35.009
-34.221
-33.401
-32.556
-31.694
-30.825
-29.955
-29.09
-28.237
-27.402
-26.588
-25.801
-25.044
-24.321
-23.633
-22.982
-22.371
-21.799
-21.267
-20.776
-20.324
-19.912
-19.537
-19.199
-18.896
-18.626
-18.389
-18.181
-18
-17.846
-17.714
-17.604
-17.513
-17.439
-17.381
-17.335
-17.301
-17.277
-17.26
-17.249
-17.243
-17.24
-17.24
-17.24
-17.239
-17.238
-17.235
-17.229
-17.221
-17.209
-17.195
-17.176
-17.154
-17.128
-17.099
-17.066
-17.03
-16.991
-16.949
-16.905
-16.859
-16.811
-16.762
-16.711
-16.659
-16.606
-16.553
-16.499
-16.446
-16.394
-16.343
-16.294
-16.247
-16.203
-16.163
-16.128
-16.097
-16.073
-16.056
-16.046
-16.044
-16.052
-16.071
-16.1
-16.14
-16.193
-16.258
-16.336
-16.427
-16.53
-16.646
-16.774
-16.914
-17.066
-17.229
-17.402
-17.585
-17.777
-17.977
-18.182
-18.392
-18.604
-18.817
-19.028
-19.235
-19.435
-19.626
-19.804
-19.965
-20.108
-20.228
-20.322
-20.386
-20.416
-20.409
-20.362
-20.271
-20.135
-19.951
-19.718
-19.435
-19.101
-18.717
-18.284
-17.8
-17.268
-16.688
-16.063
-15.394
-14.683
-13.931
-13.143
-12.324
-11.478
-10.61
-9.725
-8.829
-7.926
-7.022
-6.124
-5.238
-4.367
-3.517
-2.692
-1.901
-1.152
-0.449
0.206
0.814
1.379
1.903
2.392
2.853
3.302
3.751
4.211
4.693
5.201
5.74
6.321
6.953
7.65
8.417
9.25
10.142
11.085
12.066
13.068
14.064
15.004
15.844
16.536
17.033
17.299
17.29
16.963
16.288
15.227
13.742
11.808
9.403
6.503
3.121
-0.743
-5.109
-9.878
-14.888
-19.899
-24.536
-28.49
-31.579
-33.529
-34.022
-33.015
-30.614
-27.21
-23.657
-20.514
-17.982
-16.494
-16.443
-17.786
-20.419
-23.246
-23.997
-21.298
-14.193
-2.586
11.906
28.703
47.724
69.674
97.185
131.001
170.691
214.302
256.202
291.517
314.494
318.02
297.688
250.179
176.864
84.801
-17.958
-123.774
-230.542
-338.77
-444.865
-550.41
-655.439
-733.611
-758.746
-746.048
-717.88
-672.125
-608.966
-536.751
-459.625
-380.729
-304.355
-236.454
-181.42
-139.908
-110.287
-88.483
-71.122
-57.021
-46.377
-40.017
-37.39
-36.649
-35.58
-32.455
-26.989
-19.672
-11.057
-1.924
7.012
15.005
21.096
24.864
26.431
26.095
24.353
21.694
18.527
15.363
12.781
11.128
10.537
11.01
12.409
14.615
17.55
21.09
25.085
29.405
33.925
38.545
43.193
47.787
52.231
56.435
60.31
63.786
66.828
69.428
71.598
73.366
74.768
75.844
76.648
77.239
77.676
78.015
78.305
78.592
78.924
79.349
79.913
80.657
81.61
82.788
84.2
85.851
87.742
89.872
92.231
94.808
97.593
100.574
103.745
107.094
110.611
114.281
118.087
122.013
126.044
130.162
134.35
138.589
142.861
147.145
151.423
155.676
159.88
164.015
168.058
171.984
175.772
179.399
182.843
186.082
189.095
191.863
194.368
196.594
198.525
200.146
201.444
202.41
203.032
203.304
203.219
202.771
201.96
200.782
199.24
197.335
195.073
192.459
189.501
186.208
182.593
178.667
174.445
169.942
165.175
160.163
154.924
149.479
143.848
138.053
132.116
126.061
119.909
113.684
107.408
101.104
94.794
88.501
82.246
76.049
69.93
63.91
58.006
52.235
46.615
41.161
35.886
30.803
25.924
21.259
16.817
12.604
8.628
4.891
1.398
-1.849
-4.851
-7.609
-10.124
-12.4
-14.441
-16.255
-17.846
-19.223
-20.395
-21.37
-22.159
-22.771
-23.218
-23.511
-23.66
-23.679
-23.578
-23.369
-23.063
-22.673
-22.209
-21.682
-21.104
-20.483
-19.83
-19.154
-18.463
-17.766
-17.07
-16.382
-15.708
-15.054
-14.425
-13.826
-13.259
-12.729
-12.237
-11.785
-11.375
-11.008
-10.684
-10.402
-10.163
-9.965
-9.807
-9.689
-9.607
-9.56
-9.545
-9.562
-9.607
-9.677
-9.771
-9.885
-10.018
-10.166
-10.329
-10.502
-10.684
-10.874
-11.068
-11.265
-11.464
-11.661
-11.857
-12.049
-12.236
-12.417
-12.591
-12.757
-12.915
-13.062
-13.2
-13.328
-13.445
-13.55
-13.645
-13.728
-13.799
-13.859
-13.909
-13.947
-13.974
-13.992
-13.999
-13.998
-13.987
-13.968
-13.941
-13.907
-13.866
-13.82
-13.768
-13.713
-13.654
-13.593
-13.531
-13.47
-13.41
-13.353
-13.3
-13.252
-13.212
-13.18
-13.159
-13.15
-13.155
-13.176
-13.214
-13.27
-13.347
-13.445
-13.566
-13.71
-13.879
-14.072
-14.29
-14.533
-14.801
-15.095
-15.412
-15.754
-16.119
-16.507
-16.915
-17.342
-17.787
-18.246
-18.718
-19.2
-19.69
-20.183
-20.676
-21.166
-21.649
-22.12
-22.575
-23.009
-23.417
-23.794
-24.134
-24.435
-24.69
-24.896
-25.05
-25.148
-25.188
-25.169
-25.09
-24.948
-24.745
-24.478
-24.15
-23.759
-23.307
-22.795
-22.223
-21.596
-20.917
-20.191
-19.424
-18.62
-17.786
-16.928
-16.052
-15.165
-14.274
-13.385
-12.503
-11.639
-10.801
-10.003
-9.252
-8.552
-7.905
-7.311
-6.768
-6.269
-5.804
-5.36
-4.925
-4.492
-4.055
-3.613
-3.159
-2.686
-2.184
-1.64
-1.051
-0.417
0.261
0.975
1.708
2.434
3.117
3.714
4.19
4.514
4.659
4.6
4.3
3.728
2.856
1.649
0.095
-1.828
-4.147
-6.876
-10.026
-13.584
-17.494
-21.719
-26.257
-31.039
-35.935
-40.73
-45.088
-48.741
-51.524
-53.223
-53.573
-52.434
-49.88
-46.279
-42.325
-38.64
-35.502
-33.192
-32.165
-32.684
-34.699
-37.357
-38.762
-37.222
-31.721
-22.312
-10.351
3.351
18.55
35.933
58.605
88.853
127.503
174.157
223.311
267.663
300.395
313.268
301.298
262.895
198.315
112.857
13.899
-92.464
-201.752
-312.862
-425.58
-535.951
-636.093
-715.188
-763.074
-776.524
-758.603
-716.483
-659.765
-594.161
-522.342
-447.385
-371.259
-298.303
-234.697
-183.302
-145.146
-118.597
-99.322
-84.707
-73.56
-65.622
-61.383
-60.003
-59.707
-58.673
-55.518
-50.079
-42.841
-34.421
-25.713
-17.473
-10.414
-5.307
-2.37
-1.414
-2.12
-3.993
-6.544
-9.358
-11.951
-13.83
-14.754
-14.654
-13.566
-11.643
-8.996
-5.716
-1.933
2.208
6.579
11.07
15.593
20.08
24.447
28.604
32.462
35.939
38.989
41.597
43.768
45.53
46.913
47.956
48.711
49.237
49.591
49.83
50.004
50.16
50.344
50.607
50.996
51.56
52.331
53.33
54.57
56.056
57.792
59.777
62.005
64.461
67.137
70.023
73.109
76.387
79.846
83.472
87.249
91.158
95.184
99.31
103.517
107.787
112.1
116.436
120.776
125.1
129.386
133.612
137.754
141.789
145.693
149.444
153.017
156.392
159.545
162.459
165.113
167.49
169.575
171.351
172.807
173.929
174.708
175.134
175.201
174.904
174.238
173.203
171.797
170.024
167.886
165.389
162.541
159.35
155.827
151.984
147.836
143.396
138.682
133.712
128.503
123.076
117.451
111.65
105.694
99.607
93.409
87.126
80.778
74.389
67.98
61.575
55.195
48.86
42.592
36.41
30.333
24.38
18.567
12.911
7.427
2.128
-2.974
-7.867
-12.541
-16.989
-21.203
-25.178
-28.909
-32.394
-35.631
-38.621
-41.364
-43.863
-46.122
-48.145
-49.938
-51.507
-52.861
-54.008
-54.957
-55.716
-56.298
-56.712
-56.969
-57.081
-57.059
-56.916
-56.662
-56.309
-55.869
-55.353
-54.773
-54.139
-53.461
-52.749
-52.013
-51.262
-50.503
-49.745
-48.994
-48.256
-47.539
-46.846
-46.183
-45.552
-44.958
-44.403
-43.889
-43.418
-42.991
-42.607
-42.269
-41.974
-41.723
-41.515
-41.347
-41.219
-41.129
-41.074
-41.052
-41.06
-41.097
-41.16
-41.245
-41.351
-41.475
-41.615
-41.767
-41.93
-42.103
-42.281
-42.465
-42.653
-42.842
-43.031
-43.221
-43.408
-43.594
-43.777
-43.956
-44.132
-44.304
-44.472
-44.635
-44.795
-44.95
-45.102
-45.251
-45.396
-45.539
-45.68
-45.819
-45.957
-46.095
-46.232
-46.37
-46.508
-46.648
-46.789
-46.933
-47.078
-47.227
-47.378
-47.533
-47.69
-47.851
-48.015
-48.182
-48.352
-48.525
-48.7
-48.877
-49.057
-49.238
-49.421
-49.606
-49.792
-49.981
-50.171
-50.362
-50.555
-50.751
-50.948
-51.148
-51.35
-51.556
-51.766
-51.979
-52.198
-52.421
-52.649
-52.883
-53.123
-53.368
-53.618
-53.875
-54.136
-54.402
-54.673
-54.948
-55.227
-55.508
-55.793
-56.079
-56.365
-56.651
-56.934
-57.213
-57.487
-57.753
-58.009
-58.253
-58.482
-58.694
-58.885
-59.053
-59.194
-59.304
-59.38
-59.419
-59.417
-59.371
-59.277
-59.134
-58.939
-58.691
-58.388
-58.031
-57.62
-57.153
-56.633
-56.059
-55.433
-54.756
-54.03
-53.255
-52.433
-51.569
-50.666
-49.729
-48.762
-47.771
-46.76
-45.735
-44.702
-43.665
-42.631
-41.605
-40.592
-39.599
-38.633
-37.704
-36.818
-35.977
-35.183
-34.431
-33.717
-33.035
-32.375
-31.724
-31.069
-30.399
-29.707
-28.988
-28.234
-27.438
-26.591
-25.678
-24.692
-23.638
-22.519
-21.352
-20.158
-18.956
-17.78
-16.681
-15.703
-14.887
-14.277
-13.905
-13.811
-14.039
-14.625
-15.599
-16.989
-18.813
-21.093
-23.837
-27.036
-30.654
-34.657
-39.018
-43.641
-48.358
-52.922
-56.993
-60.27
-62.569
-63.643
-63.178
-61.144
-57.691
-53.212
-48.527
-44.192
-40.488
-37.955
-37.065
-37.861
-39.891
-41.766
-41.607
-38.144
-31.207
-21.572
-9.694
4.35
21.357
43.909
73.475
110.373
154.122
200.122
242.45
275.362
291.244
284.685
253.041
195.509
116.564
23.48
-77.529
-181.85
-288.104
-396.27
-502.927
-600.394
-678.808
-728.865
-746.217
-733.092
-695.108
-639.7
-573.553
-500.571
-424.971
-350.728
-281.789
-223.048
-176.474
-141.635
-116.383
-96.874
-80.889
-67.845
-57.995
-51.81
-48.431
-46.122
-43.084
-38.116
-31.192
-22.818
-13.575
-4.258
4.484
12.017
17.624
21.106
22.642
22.535
21.254
19.252
16.914
14.693
13.055
12.262
12.413
13.498
15.397
18.013
21.264
25.035
29.194
33.619
38.206
42.865
47.525
52.113
56.541
60.727
64.594
68.075
71.133
73.76
75.966
77.774
79.219
80.339
81.185
81.816
82.286
82.649
82.954
83.244
83.564
83.964
84.487
85.177
86.067
87.176
88.52
90.11
91.95
94.046
96.396
98.996
101.843
104.933
108.262
111.826
115.62
119.634
123.864
128.297
132.921
137.724
142.692
147.809
153.059
158.416
163.845
169.311
174.777
180.206
185.564
190.81
195.903
200.797
205.444
209.801
213.828
217.481
220.713
223.491
225.785
227.594
228.949
229.886
230.449
230.69
230.637
230.325
229.796
229.089
228.248
227.3
226.246
225.118
224.014
223.024
222.202
221.472
220.607
219.415
217.723
215.225
211.573
206.333
199.373
191.42
183.328
175.799
168.473
159.18
146.527
129.459
109.8
97.348
92.722
80.445
69.074
89.406
